4.652099,4.399059,-0.464797,-0.366015,-0.250277,-0.059217,-0.154293,0.025200,-0.241079,-0.077807,-0.202846,-0.037342,-0.255465,-0.101705,-0.052487,-0.105287,-0.195242,-0.225611,-0.195026,-0.100652,-0.208022,-0.062086,-0.184090,-0.117335,-0.240829,-0.216634,-0.119943,-0.132348,-0.166739,-0.163874,-0.252293,-0.122421,-0.226471,-0.172922,-0.169558,-0.258953,-0.199142,-0.218715,-0.314580,-0.300209,-0.399751,-0.258024,-0.369923,-0.311312,-0.311280,-0.296950,-0.104592,-0.139535,-0.025827,0.108111,0.085005,0.292048,0.288445,0.344185,0.387285,0.314386,0.345792,0.323112,0.315134,0.264488,0.243568,0.243206,0.144659,0.204386,0.204289,0.137700,0.245566,0.123823,0.176401,0.108990,0.044213,0.037149,-0.000916,0.113872,0.102140,0.038232,0.082488,-0.069596,0.056295,-0.023833,-0.074227,0.041048,-0.097417,-0.055362,0.020917,0.010020,0.081153,0.016449,0.097312,0.074496,-0.015893,0.138271,0.184475,0.240133,0.332960,0.486235,0.613146,0.492263,0.475777,0.464298,0.387403,0.520897,0.453287,0.078224,-0.027396,-0.135257,-0.004751,-0.170838,-0.168391,-0.242078,-0.165352,-0.116500,-0.199236,-0.150105,-0.139681,-0.372874,-0.590246,-1.164036,-0.991862,0.343615,2.965665,6.100662,7.025799,4.216462,0.568533,-0.786015,-0.780670,-0.433186,-0.448180,-0.401057,-0.467880,-0.394214,-0.547018,-0.519125,-0.493948,-0.451190,-0.427038,-0.591542,-0.460794,-0.539063,-0.551207,-0.572977,-0.570910,-0.496216,-0.512360,-0.508117,-0.424263,-0.574035,-0.397320,-0.511029,-0.502321,-0.460508,-0.574507,-0.538056,-0.557008,-0.646856,-0.579144,-0.731819,-0.621021,-0.795158,-0.759165,-0.795423,-0.861446,-0.836741,-0.860344,-0.898701,-0.701383,-0.744302,-0.362560,-0.359513,-0.116916,-0.100060,-0.069924,-0.023039,0.032274,-0.098477,0.119720,-0.174075,0.161533,-0.177541,0.142714,-0.220176,0.283767,-0.469948,0.000000,0.000000,0.000000,1.000000
5.069271,5.991027,1.294201,-0.181095,-0.855573,-0.194559,-0.379266,-0.139179,-0.367389,-0.164356,-0.377689,-0.325587,-0.358758,-0.270131,-0.265912,-0.348049,-0.372645,-0.280640,-0.426606,-0.343775,-0.443912,-0.315293,-0.345459,-0.336769,-0.274112,-0.340154,-0.322121,-0.235541,-0.399815,-0.244136,-0.390073,-0.370663,-0.365421,-0.447762,-0.422719,-0.491819,-0.504601,-0.509123,-0.647155,-0.549838,-0.690880,-0.651955,-0.662463,-0.726986,-0.588522,-0.559900,-0.364949,-0.143799,-0.098593,0.120004,0.042418,0.133806,0.187351,0.094744,0.209483,0.112551,0.152799,0.186617,0.092990,0.185222,0.112418,0.212469,0.200536,0.119544,0.167201,0.088935,0.110394,0.077194,-0.013329,0.054589,-0.028944,-0.016151,0.034057,-0.046476,0.077996,-0.054632,0.031354,-0.005454,-0.116608,-0.033056,-0.043603,0.003101,0.025052,-0.080697,0.023968,-0.077368,-0.023368,0.002899,0.005815,0.035979,-0.029849,0.015140,0.207619,0.250443,0.395418,0.405788,0.544145,0.617863,0.522715,0.541319,0.451531,0.344013,0.636460,0.502462,0.338185,0.156291,0.022509,-0.017200,-0.144326,-0.048445,-0.174497,-0.197999,-0.163189,-0.263650,-0.134725,-0.291795,-0.495701,-0.853102,-1.249081,-0.526214,1.733468,5.050608,7.276909,3.479751,-0.798332,-0.550386,-0.307080,-0.298293,-0.354637,-0.310760,-0.344614,-0.369282,-0.375320,-0.438974,-0.367633,-0.510363,-0.409958,-0.422878,-0.477028,-0.409483,-0.442040,-0.348512,-0.327106,-0.388726,-0.300828,-0.459611,-0.438016,-0.436907,-0.470076,-0.367801,-0.405867,-0.402578,-0.309110,-0.358965,-0.261057,-0.391722,-0.360145,-0.448412,-0.444316,-0.442094,-0.479534,-0.521620,-0.410212,-0.518253,-0.313922,-0.294492,-0.004162,-0.009942,0.082660,0.115483,0.199513,0.143185,0.257161,0.070081,0.258943,0.033801,0.216162,0.060830,0.220197,0.081260,0.221692,-0.104070,0.335560,-0.614832,0.000000,0.000000,0.000000,1.000000
5.090728,6.534992,0.194485,-0.716941,-0.458872,-0.188413,-0.422612,-0.253899,-0.383621,-0.308049,-0.412936,-0.374880,-0.437698,-0.392017,-0.536916,-0.325944,-0.531858,-0.382687,-0.471300,-0.365974,-0.338684,-0.350462,-0.356247,-0.342326,-0.514591,-0.376529,-0.510776,-0.379917,-0.394390,-0.409979,-0.346787,-0.327444,-0.311483,-0.302531,-0.410340,-0.369974,-0.489512,-0.412035,-0.474750,-0.512530,-0.455275,-0.467905,-0.430601,-0.275578,-0.158797,0.064661,0.001840,0.150246,0.156469,0.195277,0.214872,0.177351,0.159543,0.191573,0.081449,0.212232,0.088619,0.224849,0.120888,0.092364,0.093675,-0.042106,0.021146,0.017961,-0.096403,-0.063110,-0.142789,-0.033077,-0.084315,-0.113034,-0.080882,-0.175925,-0.157270,-0.120908,-0.215619,-0.036367,-0.146682,-0.045308,-0.059143,-0.117712,-0.094415,-0.194704,-0.104747,-0.115221,-0.131716,-0.027030,-0.055489,0.149894,0.177139,0.257462,0.346312,0.351517,0.486233,0.443513,0.353987,0.398775,0.327602,0.383775,0.502541,0.362529,0.050350,-0.179630,-0.242633,-0.194332,-0.330420,-0.216675,-0.382374,-0.200648,-0.330141,-0.360661,-0.338771,-0.588948,-0.947069,-1.073233,-1.702027,-1.142560,0.198268,2.772028,6.112641,6.216404,1.405942,-1.113856,-0.335242,-0.355058,-0.332641,-0.290554,-0.394073,-0.314841,-0.362536,-0.393385,-0.351764,-0.396703,-0.290850,-0.294501,-0.351680,-0.310967,-0.378512,-0.276999,-0.250141,-0.282450,-0.234422,-0.310855,-0.198896,-0.292119,-0.241751,-0.210963,-0.286226,-0.203047,-0.270233,-0.166583,-0.251691,-0.230788,-0.184689,-0.269115,-0.222359,-0.210292,-0.258709,-0.128235,-0.317895,-0.192412,-0.198076,-0.065580,0.099642,0.123173,0.206966,0.296537,0.272321,0.406596,0.203845,0.347400,0.204466,0.285290,0.291869,0.288269,0.169196,0.351838,0.091084,0.379189,-0.077934,0.546748,-0.478778,0.000000,0.000000,0.000000,0.000000,0.000000,0.000000,1.000000
5.525379,4.682962,-1.207096,-0.520231,-0.499346,-0.300190,-0.448154,-0.317075,-0.514411,-0.282635,-0.558170,-0.331773,-0.526814,-0.328910,-0.377684,-0.348874,-0.426891,-0.362519,-0.441075,-0.222265,-0.393587,-0.228661,-0.394677,-0.240071,-0.323887,-0.309932,-0.251876,-0.311129,-0.283815,-0.276418,-0.267087,-0.219817,-0.340200,-0.184505,-0.320183,-0.272671,-0.249820,-0.300692,-0.194466,-0.290144,-0.322413,-0.183642,-0.195475,0.106239,0.087727,0.212044,0.289276,0.307721,0.405537,0.299334,0.292176,0.320384,0.210165,0.385949,0.265180,0.247150,0.291110,0.221426,0.254916,0.142236,0.228307,0.156332,0.000616,0.145367,0.047766,0.097995,0.093449,-0.031186,0.039081,-0.057007,-0.030080,0.033224,0.004234,0.050596,-0.060355,-0.141731,-0.042184,-0.093736,0.007715,-0.165963,-0.127337,-0.062305,-0.066134,0.058675,-0.022480,0.150123,0.283265,0.266103,0.415281,0.372835,0.594319,0.595323,0.561292,0.572361,0.497033,0.449107,0.457410,0.564421,0.330932,0.076203,0.009530,-0.030223,-0.091462,-0.000355,-0.191547,-0.196556,-0.218152,-0.240242,-0.163342,-0.236285,-0.121033,-0.155522,-0.423227,-0.787883,-1.388773,-0.729128,1.510606,5.215697,7.468045,3.290587,-0.782707,-0.750763,-0.372162,-0.360138,-0.530526,-0.432839,-0.428531,-0.423425,-0.306985,-0.408148,-0.278792,-0.450338,-0.442172,-0.393526,-0.496038,-0.453053,-0.434483,-0.501209,-0.432133,-0.528283,-0.379590,-0.391652,-0.355698,-0.468032,-0.545799,-0.404238,-0.403750,-0.448595,-0.340132,-0.538638,-0.342224,-0.502140,-0.519751,-0.618879,-0.670366,-0.718244,-0.770617,-0.658226,-0.566875,-0.751449,-0.486412,-0.574199,-0.306673,-0.214748,-0.085443,0.095515,0.226125,0.109123,0.245437,0.045900,0.318898,0.073319,0.271591,0.122748,0.406267,0.188874,0.337811,-0.026639,0.505885,-0.599466,0.000000,0.000000,0.000000,0.000000,0.000000,0.000000,0.000000,1.000000
5.133368,4.833459,-0.641575,-0.604812,-0.559500,-0.170390,-0.596044,-0.331314,-0.472993,-0.338994,-0.359512,-0.306044,-0.342275,-0.311228,-0.501430,-0.298192,-0.503444,-0.391812,-0.439644,-0.425940,-0.447963,-0.442902,-0.429439,-0.310734,-0.383071,-0.358297,-0.557664,-0.370077,-0.389993,-0.403208,-0.342175,-0.450714,-0.391713,-0.381802,-0.538314,-0.505824,-0.670503,-0.616437,-0.758837,-0.620156,-0.547164,-0.662776,-0.538329,-0.477173,-0.401901,-0.148349,-0.165189,0.104868,0.169393,0.160742,0.177851,0.120558,0.201010,0.193733,0.134038,0.238294,0.228434,0.353835,0.159950,0.200304,0.169994,0.046644,0.114921,0.017344,0.064719,0.112558,-0.009286,0.036889,0.086811,0.036335,0.049904,0.003984,0.133949,-0.005480,-0.046828,0.071323,0.013305,0.122166,0.035304,0.031332,0.042221,-0.021935,0.092403,-0.032661,0.012176,0.154985,0.272797,0.475223,0.448959,0.573050,0.663934,0.641673,0.683110,0.530250,0.626385,0.551373,0.572444,0.859234,0.562342,0.349868,0.171382,-0.035401,-0.040713,-0.073768,-0.017960,-0.057297,-0.168722,-0.064516,-0.146370,-0.114985,-0.056598,-0.293247,-0.489031,-0.973944,-1.187681,-0.296423,1.930095,5.676427,7.249197,3.005590,-0.768779,-0.708682,-0.305083,-0.372723,-0.256625,-0.342413,-0.401883,-0.335827,-0.444610,-0.367006,-0.397059,-0.469803,-0.299564,-0.457872,-0.334057,-0.391696,-0.407551,-0.344428,-0.459237,-0.443484,-0.420974,-0.535372,-0.302972,-0.440963,-0.340766,-0.471838,-0.455073,-0.462451,-0.471267,-0.407461,-0.367635,-0.403942,-0.329304,-0.537638,-0.411971,-0.572877,-0.585380,-0.592748,-0.626044,-0.621618,-0.603109,-0.619072,-0.381954,-0.319283,0.077381,-0.000389,0.231600,0.260096,0.278519,0.253521,0.327800,0.235239,0.457938,0.184377,0.538069,0.210421,0.516945,0.098269,0.546537,-0.289968,0.000000,0.000000,0.000000,0.000000,0.000000,0.000000,0.000000,1.000000
5.084057,4.535255,-0.727061,-0.689437,-0.575945,-0.287094,-0.483067,-0.257342,-0.581944,-0.314011,-0.567752,-0.397243,-0.490748,-0.493586,-0.447600,-0.426634,-0.509048,-0.360287,-0.551464,-0.362386,-0.532205,-0.497637,-0.497361,-0.564622,-0.467521,-0.414138,-0.496605,-0.426762,-0.599103,-0.460867,-0.589651,-0.460007,-0.470129,-0.441230,-0.433820,-0.499135,-0.574865,-0.502706,-0.718249,-0.589387,-0.719004,-0.653511,-0.688186,-0.672934,-0.562665,-0.406988,-0.190400,0.014051,-0.030957,0.238767,0.131059,0.203464,0.188372,0.185853,0.264108,0.233362,0.236201,0.340914,0.199775,0.296719,0.135026,0.182360,0.183451,0.118454,0.132247,0.076663,-0.003673,0.093954,-0.011093,0.085199,-0.045662,0.065437,0.044093,-0.035177,-0.005104,-0.022532,-0.048215,0.031284,-0.041537,0.091417,-0.023049,0.023886,-0.010080,-0.051277,-0.005530,-0.005646,-0.003370,0.063573,-0.053460,0.124451,0.080289,0.219938,0.388045,0.377266,0.517508,0.606726,0.647061,0.705159,0.477673,0.601805,0.433975,0.602814,0.611785,0.276835,0.107653,0.000049,-0.016611,-0.047099,-0.129433,0.000980,-0.072372,-0.110937,-0.098979,-0.132269,-0.091086,-0.120897,-0.258454,-0.616394,-1.087966,-1.086586,0.157513,2.835935,6.258383,7.239179,2.960170,-0.732951,-0.462850,-0.205366,-0.325898,-0.266162,-0.288203,-0.329190,-0.276602,-0.389096,-0.348111,-0.426961,-0.438401,-0.358981,-0.462031,-0.373239,-0.436264,-0.369869,-0.306259,-0.350257,-0.282179,-0.280666,-0.348104,-0.275180,-0.390938,-0.304998,-0.362397,-0.366970,-0.320230,-0.363205,-0.285369,-0.278890,-0.273051,-0.240171,-0.428159,-0.265370,-0.356829,-0.371789,-0.361093,-0.343652,-0.292400,-0.366061,-0.335968,-0.227782,-0.372925,-0.108475,-0.113025,0.116836,0.142532,0.281635,0.219702,0.299488,0.145274,0.358982,0.091274,0.376981,0.039367,0.363725,0.017042,0.520520,-0.303199,0.000000,0.000000,1.000000
4.881029,5.689368,0.179626,-0.553942,-0.345566,-0.131739,-0.382894,-0.135697,-0.382428,-0.185078,-0.366665,-0.290081,-0.379177,-0.384250,-0.373511,-0.346904,-0.419209,-0.318498,-0.425493,-0.245483,-0.336177,-0.264127,-0.255385,-0.283246,-0.289623,-0.282779,-0.351119,-0.253738,-0.383768,-0.265474,-0.341917,-0.275998,-0.252424,-0.254733,-0.208544,-0.323291,-0.329530,-0.237962,-0.379611,-0.297232,-0.349062,-0.256251,-0.307822,-0.338910,-0.212035,-0.305719,-0.203218,-0.072780,0.005613,0.161391,0.199516,0.252339,0.247258,0.193795,0.258289,0.201681,0.219347,0.216853,0.147025,0.241014,0.182596,0.240067,0.226758,0.102470,0.284809,0.242636,0.263518,0.328455,0.287343,0.493495,0.387879,0.542457,0.436873,0.558292,0.586531,0.435073,0.417339,0.141130,0.035382,-0.000762,-0.167636,-0.174603,-0.196025,-0.303820,-0.197832,-0.266466,-0.150717,-0.163903,-0.154355,-0.109760,-0.197492,-0.276640,-0.657920,-1.092831,-1.245451,-0.274204,1.998208,4.878886,6.540886,3.330753,-0.634378,-0.470423,-0.262157,-0.359200,-0.285560,-0.402893,-0.304601,-0.353267,-0.410674,-0.362421,-0.371517,-0.335430,-0.382527,-0.493660,-0.330239,-0.405062,-0.316067,-0.334689,-0.380959,-0.370709,-0.459135,-0.344446,-0.335108,-0.403141,-0.270731,-0.383240,-0.263026,-0.359288,-0.361504,-0.333770,-0.375541,-0.331058,-0.333870,-0.425917,-0.260061,-0.410620,-0.346133,-0.454588,-0.474338,-0.421816,-0.438013,-0.345157,-0.337825,-0.370928,-0.198031,-0.306330,-0.029833,-0.145935,-0.013481,0.046947,0.117203,0.021502,0.119619,-0.154460,0.180113,-0.048871,0.285744,-0.150558,0.338329,-0.482747,0.000000,0.000000,0.000000,0.000000,0.000000,0.000000,0.000000,0.000000,0.000000,0.000000,0.000000,0.000000,0.000000,0.000000,0.000000,0.000000,0.000000,0.000000,0.000000,0.000000,0.000000,0.000000,0.000000,0.000000,0.000000,0.000000,0.000000,4.000000
5.280511,4.955960,-0.829368,-0.789124,-0.747798,-0.362122,-0.566073,-0.518811,-0.602282,-0.513494,-0.578478,-0.476412,-0.527536,-0.339802,-0.506313,-0.379952,-0.499019,-0.430154,-0.479097,-0.461158,-0.514919,-0.410694,-0.560198,-0.453352,-0.521679,-0.414403,-0.490275,-0.398448,-0.407279,-0.490682,-0.497433,-0.474153,-0.533518,-0.408312,-0.639897,-0.450315,-0.567761,-0.561353,-0.496026,-0.569563,-0.554299,-0.530974,-0.616157,-0.479133,-0.505545,-0.197042,-0.188945,-0.007995,0.066581,0.069083,0.143682,0.203922,0.210957,0.313796,0.191508,0.300919,0.152984,0.208292,0.201495,0.128038,0.188797,0.162429,0.113177,0.168796,0.015995,0.139377,-0.011696,0.016536,0.029867,-0.069297,0.028598,-0.113061,-0.043021,0.013874,-0.139041,-0.022650,-0.166756,-0.084379,-0.083224,-0.094181,-0.015782,-0.058973,-0.034003,0.040608,-0.066684,0.083069,-0.061589,0.006249,0.040863,-0.044175,0.063189,0.123419,0.357126,0.444585,0.440327,0.618468,0.584240,0.618123,0.474477,0.497339,0.480185,0.628314,0.639874,0.374391,0.167879,0.105391,-0.097063,-0.094945,-0.066379,-0.148455,-0.086222,-0.209910,-0.123526,-0.060208,-0.158486,-0.227001,-0.831169,-1.209438,-0.874124,1.262353,4.652499,7.505932,4.576972,-0.455026,-0.628607,-0.157586,-0.371134,-0.258562,-0.341485,-0.372938,-0.321415,-0.431004,-0.414319,-0.362172,-0.480218,-0.326043,-0.440235,-0.302942,-0.375222,-0.360641,-0.325825,-0.401014,-0.297620,-0.293119,-0.409809,-0.250913,-0.325717,-0.212514,-0.290830,-0.282162,-0.282500,-0.319934,-0.335310,-0.267039,-0.376547,-0.261573,-0.349383,-0.290493,-0.386040,-0.353076,-0.322991,-0.349576,-0.290342,-0.257285,-0.227980,0.048316,-0.066191,0.108397,0.046470,0.325523,0.297393,0.351472,0.351296,0.357005,0.156006,0.431190,0.148684,0.446180,0.144694,0.405549,0.068384,0.566914,-0.276405,0.000000,0.000000,0.000000,0.000000,1.000000
5.181789,6.292645,-0.045287,-0.823557,-0.449211,-0.373412,-0.541862,-0.360045,-0.618375,-0.398261,-0.609885,-0.538161,-0.546203,-0.575592,-0.554836,-0.510048,-0.552321,-0.429879,-0.591201,-0.415586,-0.583163,-0.453099,-0.443605,-0.522863,-0.473091,-0.415939,-0.439689,-0.360204,-0.490138,-0.384413,-0.489736,-0.464198,-0.451200,-0.470313,-0.482675,-0.426116,-0.504863,-0.450768,-0.576186,-0.429201,-0.529595,-0.442379,-0.422814,-0.407502,-0.192844,-0.149027,-0.138159,-0.048781,0.021112,0.233637,0.125965,0.243067,0.203369,0.076600,0.159964,0.153823,0.114827,0.205637,0.053484,0.159186,0.086203,0.145087,0.142222,0.022171,0.038672,0.009227,0.033179,0.027336,-0.124036,-0.017299,-0.118528,-0.089926,-0.061653,-0.099816,0.023233,-0.103990,-0.079490,-0.065156,-0.129546,-0.051838,-0.132587,-0.026802,0.072957,-0.028057,-0.016582,-0.094321,-0.008306,-0.016780,-0.012420,0.307356,0.312207,0.450147,0.540871,0.638382,0.723479,0.574354,0.514955,0.530992,0.493702,0.763935,0.360578,0.205146,0.070464,-0.048806,-0.007130,-0.019114,-0.074743,0.014535,-0.135628,-0.101544,-0.197979,-0.162580,-0.140416,-0.525539,-0.838528,-1.308877,-0.629670,1.506708,4.906525,7.024223,3.453968,-0.624496,-0.687840,-0.332913,-0.305054,-0.302811,-0.274549,-0.200029,-0.306202,-0.193162,-0.355930,-0.340660,-0.330745,-0.332235,-0.312585,-0.315317,-0.210301,-0.239653,-0.294512,-0.235002,-0.401972,-0.278565,-0.385699,-0.379378,-0.298104,-0.234087,-0.198901,-0.245740,-0.345149,-0.308461,-0.376849,-0.230168,-0.283109,-0.286716,-0.244542,-0.428393,-0.416477,-0.335959,-0.504751,-0.267915,-0.415080,-0.241553,-0.207281,-0.112919,0.028597,0.068825,0.122649,0.264300,0.181464,0.393421,0.170007,0.348506,0.220565,0.231703,0.098284,0.184348,0.028098,0.304958,-0.128245,0.431837,-0.501505,0.000000,0.000000,0.000000,0.000000,0.000000,0.000000,1.000000
5.037486,6.157123,0.327051,-0.685537,-0.460587,-0.145495,-0.312465,-0.166883,-0.196235,-0.156767,-0.217193,-0.155771,-0.363904,-0.197382,-0.325698,-0.198871,-0.298698,-0.145402,-0.166879,-0.208042,-0.187591,-0.265961,-0.290129,-0.228000,-0.378859,-0.215994,-0.219530,-0.105549,-0.176597,-0.236872,-0.272179,-0.273465,-0.239029,-0.146840,-0.273678,-0.136144,-0.331628,-0.369889,-0.269356,-0.407894,-0.277241,-0.273017,-0.278276,-0.085701,-0.128774,0.115573,0.100679,0.199711,0.294376,0.289085,0.399961,0.337594,0.318120,0.403305,0.225919,0.271723,0.161313,0.208576,0.232907,0.159170,0.185649,0.154054,0.182209,0.173127,0.053727,0.047908,-0.041960,0.053734,-0.018884,-0.044402,-0.001812,-0.031132,-0.013230,-0.000513,-0.095881,0.023312,0.036478,0.021492,0.002059,-0.003562,0.091611,-0.041421,-0.019645,0.064540,-0.070404,0.241913,0.282538,0.384496,0.534350,0.529530,0.656833,0.527181,0.477160,0.441780,0.281885,0.572628,0.308006,0.175391,-0.027420,-0.171238,0.000206,-0.075782,-0.089365,-0.162502,-0.237169,-0.222738,-0.294370,-0.229074,-0.210269,-0.431190,-0.691246,-1.192196,-0.999263,0.844581,3.958899,6.945598,4.603812,0.037541,-0.964130,-0.505848,-0.345583,-0.464511,-0.452149,-0.439586,-0.371262,-0.345321,-0.434995,-0.315047,-0.437277,-0.457114,-0.464101,-0.528440,-0.492525,-0.534933,-0.492561,-0.417948,-0.523986,-0.441441,-0.572617,-0.481987,-0.504633,-0.540189,-0.494932,-0.514501,-0.476771,-0.366024,-0.508239,-0.391795,-0.488300,-0.502096,-0.625864,-0.691177,-0.682037,-0.804375,-0.850881,-0.693609,-0.847711,-0.632474,-0.756970,-0.559997,-0.461080,-0.297765,-0.211328,-0.043326,-0.051581,0.161615,0.050702,0.223788,0.069515,0.242432,0.148455,0.243753,0.119372,0.242868,-0.124187,0.425876,-0.570399,0.000000,0.000000,0.000000,0.000000,0.000000,0.000000,0.000000,0.000000,0.000000,0.000000,1.000000
5.257598,6.176779,0.234182,-0.599328,-0.488487,-0.170385,-0.335559,-0.231763,-0.308485,-0.243619,-0.333076,-0.198973,-0.374922,-0.120217,-0.381310,-0.136389,-0.294189,-0.222477,-0.259229,-0.349662,-0.267851,-0.194973,-0.264844,-0.116535,-0.288068,-0.202208,-0.288860,-0.205280,-0.266166,-0.332987,-0.163800,-0.222517,-0.373778,-0.203677,-0.310685,-0.179440,-0.244886,-0.256369,-0.337257,-0.376793,-0.285763,-0.285234,-0.339343,-0.200619,-0.271091,-0.028676,-0.004263,0.116836,0.203465,0.271281,0.372818,0.312664,0.286816,0.384043,0.253903,0.433225,0.401036,0.413641,0.332913,0.200829,0.263207,0.245457,0.248589,0.248533,0.084314,0.237743,0.121591,0.158379,0.196456,0.043429,0.096431,0.054157,-0.016105,0.046546,-0.089025,0.070185,-0.015582,0.043499,0.045942,-0.038558,0.032445,0.020377,0.000524,0.013646,-0.146796,0.039759,-0.083755,0.047637,0.017070,0.029611,0.204512,0.356913,0.364519,0.416165,0.446484,0.685748,0.566163,0.593347,0.530988,0.538195,0.453650,0.467930,0.688836,0.459751,0.244866,0.310100,-0.056221,-0.043525,-0.125262,-0.188767,-0.147701,-0.222543,-0.201570,-0.154034,-0.300881,-0.118587,-0.377574,-0.651747,-1.201838,-1.350052,-0.166243,2.151655,5.652463,6.558366,2.715923,-0.593716,-0.922339,-0.580247,-0.544260,-0.492296,-0.488944,-0.533837,-0.421061,-0.445172,-0.499597,-0.474586,-0.532703,-0.442950,-0.442784,-0.435808,-0.399968,-0.537630,-0.527139,-0.554025,-0.584616,-0.541523,-0.627634,-0.578590,-0.547418,-0.523795,-0.488041,-0.573023,-0.521168,-0.520070,-0.562542,-0.477754,-0.602427,-0.407381,-0.561390,-0.534729,-0.554134,-0.716450,-0.703757,-0.693456,-0.728634,-0.659596,-0.774736,-0.589068,-0.560072,-0.313049,-0.317067,-0.194475,0.009139,0.072093,-0.036785,0.170998,-0.116947,0.162393,-0.018312,0.183790,0.005182,0.188683,-0.163251,0.296696,-0.635746,0.000000,0.000000,1.000000
5.026624,4.576264,-0.309432,-0.596893,-0.637014,-0.224795,-0.462593,-0.194260,-0.462788,-0.188106,-0.326600,-0.258714,-0.364067,-0.293526,-0.355142,-0.200015,-0.332573,-0.165202,-0.383412,-0.325672,-0.403819,-0.383810,-0.404984,-0.403892,-0.465815,-0.340101,-0.399501,-0.280634,-0.411995,-0.349902,-0.349907,-0.384334,-0.322905,-0.400009,-0.302468,-0.302789,-0.429971,-0.314600,-0.549136,-0.523700,-0.537684,-0.545620,-0.511505,-0.571018,-0.496628,-0.371429,-0.236603,-0.088521,-0.110303,0.173685,0.240696,0.166953,0.299729,0.162779,0.212758,0.287216,0.227896,0.329753,0.227312,0.225004,0.193643,0.106662,0.246624,0.118345,0.227620,0.273888,0.148969,0.198214,0.012564,0.047189,-0.019681,0.023830,0.051312,-0.017424,0.075860,0.045671,-0.033816,0.051131,-0.049169,-0.036508,-0.030640,-0.053349,0.069246,0.014767,0.101590,0.029911,0.002592,0.056791,0.001606,0.074914,0.090220,0.006188,0.263990,0.190289,0.435143,0.431842,0.589497,0.747137,0.622738,0.633105,0.561321,0.400796,0.552394,0.535418,0.363153,0.126189,-0.005346,-0.012330,-0.110800,-0.029139,-0.146389,-0.156170,-0.079556,-0.252149,-0.075469,-0.169341,-0.158019,-0.159831,-0.577751,-0.832643,-1.196715,-0.339419,1.921139,5.105226,7.514583,4.854462,0.292119,-0.812764,-0.540822,-0.356646,-0.391215,-0.295254,-0.227838,-0.402923,-0.258576,-0.423189,-0.372772,-0.401059,-0.507377,-0.421734,-0.440438,-0.442618,-0.398145,-0.452672,-0.324504,-0.455893,-0.367832,-0.334784,-0.443827,-0.397658,-0.472943,-0.473620,-0.394657,-0.536331,-0.413046,-0.447308,-0.429548,-0.362358,-0.385975,-0.435175,-0.479071,-0.504794,-0.540278,-0.746681,-0.633618,-0.829935,-0.684475,-0.669736,-0.547408,-0.398601,-0.263959,-0.161483,-0.029491,-0.127222,0.211333,0.020637,0.264408,0.160084,0.273462,0.165969,0.299132,0.071942,0.356086,-0.129947,0.526473,-0.531845,0.000000,1.000000
4.885305,6.057595,0.815201,-0.628973,-0.804722,-0.328319,-0.531412,-0.326105,-0.348986,-0.376249,-0.419540,-0.365513,-0.530806,-0.364156,-0.609050,-0.447950,-0.527787,-0.467513,-0.493705,-0.469409,-0.449414,-0.430575,-0.516540,-0.333101,-0.528817,-0.427493,-0.533865,-0.515928,-0.480318,-0.530322,-0.540539,-0.442914,-0.542544,-0.394447,-0.468806,-0.449374,-0.549052,-0.531056,-0.582604,-0.730498,-0.718967,-0.781784,-0.808877,-0.657755,-0.679234,-0.444206,-0.395984,-0.232379,-0.152411,-0.178432,0.013127,0.021781,0.038591,0.161345,0.065691,0.162775,0.091736,0.098623,0.101526,0.002437,0.086237,-0.013647,0.017107,0.099661,-0.082722,0.042659,-0.084197,-0.054376,0.013566,-0.158805,-0.046855,-0.071221,-0.035855,0.070096,-0.100423,0.002980,-0.111911,-0.119690,-0.084001,-0.142936,-0.059397,-0.136611,-0.088430,-0.064800,-0.133150,-0.007065,-0.065936,0.011493,-0.055626,-0.081802,0.034827,0.036813,0.259595,0.329603,0.299372,0.531895,0.534512,0.637166,0.587562,0.479126,0.536700,0.390799,0.609077,0.389510,0.091864,0.091523,-0.109780,-0.106805,-0.018177,-0.100055,-0.022653,-0.173750,-0.173219,-0.144018,-0.206240,-0.145619,-0.258183,-0.380128,-0.785555,-1.176532,-0.404802,1.763696,5.016775,7.206120,4.050424,-0.256666,-0.641766,-0.229963,-0.315362,-0.374241,-0.348310,-0.366115,-0.326382,-0.322576,-0.370022,-0.238761,-0.428955,-0.285199,-0.390899,-0.363493,-0.319185,-0.375807,-0.356175,-0.313048,-0.315604,-0.195174,-0.319475,-0.255971,-0.317136,-0.323968,-0.208638,-0.339073,-0.289688,-0.249160,-0.272709,-0.129789,-0.285647,-0.150106,-0.269894,-0.327810,-0.283193,-0.383948,-0.286506,-0.267910,-0.312417,-0.122989,-0.146795,0.153982,0.127002,0.309169,0.319317,0.337433,0.318976,0.387626,0.230160,0.450182,0.196248,0.469896,0.270850,0.459019,0.227183,0.359329,0.147130,0.538477,-0.288544,0.000000,0.000000,1.000000
5.309188,5.902732,-0.106451,-0.748249,-0.617147,-0.327922,-0.679219,-0.438323,-0.635901,-0.453423,-0.556404,-0.512667,-0.480619,-0.529086,-0.567030,-0.476761,-0.641315,-0.439981,-0.606437,-0.508477,-0.543703,-0.470956,-0.429937,-0.426915,-0.510614,-0.419444,-0.583091,-0.350343,-0.528095,-0.473455,-0.446458,-0.446500,-0.343840,-0.403616,-0.403229,-0.352312,-0.569609,-0.419322,-0.589045,-0.480377,-0.451645,-0.494439,-0.350713,-0.309064,-0.105308,0.021527,0.064980,0.229817,0.149008,0.205353,0.217720,0.131044,0.234400,0.152847,0.192516,0.266379,0.174207,0.258430,0.052138,0.180648,0.136238,0.070787,0.147205,0.070093,0.097519,0.121407,0.014995,0.146398,-0.030027,0.076543,-0.030898,-0.098746,-0.007890,-0.074868,-0.009180,0.006800,-0.038520,0.061519,-0.028955,0.056501,-0.031882,-0.109997,0.009665,-0.082637,0.000758,0.051008,-0.010513,0.233666,0.349993,0.515039,0.449834,0.490538,0.621871,0.649803,0.687062,0.621385,0.490314,0.569799,0.359299,0.578203,0.678901,0.363552,0.209029,-0.061707,-0.108678,-0.126962,-0.155698,-0.125855,-0.271329,-0.241210,-0.223717,-0.233467,-0.168338,-0.574820,-0.949539,-1.360721,-0.752850,1.525579,4.819365,7.033256,3.554986,-0.570760,-0.633935,-0.386827,-0.347293,-0.353899,-0.349889,-0.252487,-0.441260,-0.324552,-0.435535,-0.443438,-0.407942,-0.453398,-0.367513,-0.395129,-0.340863,-0.244973,-0.354805,-0.261099,-0.398488,-0.307674,-0.352044,-0.434111,-0.357885,-0.355346,-0.315378,-0.244447,-0.340863,-0.143371,-0.276823,-0.204541,-0.272108,-0.306805,-0.345163,-0.369129,-0.375685,-0.264799,-0.448001,-0.285556,-0.443772,-0.303851,-0.296990,-0.216273,-0.159671,-0.113906,-0.074896,0.113910,0.008181,0.313802,0.070418,0.326359,0.199192,0.320046,0.238653,0.312369,-0.007896,0.330336,-0.202270,0.434301,-0.559628,0.000000,0.000000,0.000000,0.000000,0.000000,0.000000,1.000000
4.392153,4.899616,-0.131598,-0.483802,-0.438108,-0.180880,-0.338651,-0.221535,-0.239306,-0.256999,-0.334443,-0.244439,-0.422001,-0.264973,-0.399869,-0.268543,-0.321848,-0.269289,-0.196245,-0.236219,-0.227876,-0.250393,-0.293917,-0.208203,-0.362961,-0.276168,-0.280009,-0.252872,-0.178047,-0.248638,-0.138936,-0.145135,-0.188836,-0.147447,-0.246836,-0.236800,-0.287176,-0.299006,-0.205048,-0.309617,-0.266942,-0.282021,-0.308109,-0.182697,-0.207857,-0.089462,-0.083977,-0.044975,0.103691,0.064412,0.232437,0.198041,0.203842,0.314954,0.227266,0.325356,0.267216,0.148895,0.188567,0.094965,0.092845,0.120166,0.048594,0.110007,0.021058,0.032542,0.059365,0.035712,0.093832,0.021685,0.024882,-0.094928,-0.065806,-0.011085,-0.066489,0.004155,-0.060546,-0.093675,-0.044221,-0.128874,-0.009295,-0.082589,-0.094647,-0.018231,-0.070737,0.028728,-0.020296,-0.081446,0.080509,0.176572,0.295334,0.276739,0.262505,0.428915,0.410832,0.449557,0.412320,0.453739,0.478760,0.355652,0.516361,0.154220,-0.015573,-0.160495,-0.206038,-0.118332,-0.170264,-0.207119,-0.146197,-0.217912,-0.149993,-0.234024,-0.359134,-0.698784,-1.085490,-1.124932,-0.001642,1.256286,4.114456,6.350725,6.535541,3.557256,0.212561,-0.792261,-0.548104,-0.351530,-0.367052,-0.498110,-0.428714,-0.470435,-0.321000,-0.502969,-0.438851,-0.383931,-0.408994,-0.464303,-0.485089,-0.400699,-0.470289,-0.594422,-0.433716,-0.526333,-0.450066,-0.432724,-0.382385,-0.414478,-0.507612,-0.521657,-0.387823,-0.549856,-0.376558,-0.457353,-0.371818,-0.356125,-0.489061,-0.543696,-0.645870,-0.818635,-0.672854,-0.846959,-0.687881,-0.812275,-0.625803,-0.561745,-0.441056,-0.250831,-0.128466,-0.054687,0.059357,-0.114949,0.176926,-0.082814,0.138170,-0.042316,0.078439,-0.028017,0.139442,-0.058849,0.197931,-0.223238,0.276322,-0.637647,0.000000,0.000000,0.000000,0.000000,0.000000,1.000000
5.287766,5.739168,0.962597,-0.431089,-0.734340,-0.186951,-0.342593,-0.315331,-0.434796,-0.325361,-0.327060,-0.291624,-0.470928,-0.235666,-0.370660,-0.312439,-0.456613,-0.304094,-0.369802,-0.490587,-0.418722,-0.383689,-0.437425,-0.315067,-0.343472,-0.281382,-0.422209,-0.449957,-0.331159,-0.419536,-0.371565,-0.306671,-0.364241,-0.212907,-0.402386,-0.438841,-0.541072,-0.733204,-0.643189,-0.730805,-0.690954,-0.683761,-0.663198,-0.445475,-0.447160,-0.167436,-0.075299,0.043340,0.157402,0.020561,0.217182,0.123728,0.144225,0.182099,0.085564,0.179274,0.145202,0.174804,0.168938,0.096862,0.094924,0.011246,0.013842,0.096265,-0.037921,0.010418,-0.103661,-0.086300,0.016808,-0.025503,0.033471,-0.025119,-0.074188,-0.067693,-0.147557,-0.062926,-0.074058,-0.047240,-0.004274,-0.189838,-0.064176,-0.131598,-0.033985,-0.085693,-0.073870,-0.003165,-0.016152,0.161713,0.338082,0.301197,0.479275,0.483924,0.598225,0.545325,0.376043,0.489445,0.361581,0.461245,0.581772,0.332887,0.252185,-0.068980,-0.095568,-0.191099,-0.173708,-0.070578,-0.166102,-0.098472,-0.071845,-0.125116,-0.101986,-0.160674,-0.331085,-0.778396,-1.240619,-0.726145,1.374319,4.646276,7.163693,3.992456,-0.386420,-0.761493,-0.349394,-0.414732,-0.387243,-0.309508,-0.343335,-0.339697,-0.333570,-0.405715,-0.228410,-0.383715,-0.250163,-0.341779,-0.373026,-0.361980,-0.346703,-0.272358,-0.295795,-0.384047,-0.301308,-0.429402,-0.356049,-0.444149,-0.387391,-0.375119,-0.350275,-0.324245,-0.290659,-0.370695,-0.237705,-0.435733,-0.334246,-0.517881,-0.463810,-0.517138,-0.553782,-0.575634,-0.554301,-0.547095,-0.354124,-0.395040,-0.066031,-0.108753,0.069250,0.136129,0.204766,0.207276,0.312388,0.165192,0.373987,0.162696,0.456071,0.207415,0.423008,0.154644,0.348471,0.133114,0.538071,-0.402152,0.000000,0.000000,0.000000,0.000000,0.000000,0.000000,0.000000,1.000000
4.903488,5.363889,-0.209712,-0.754111,-0.642357,-0.361499,-0.618750,-0.320352,-0.517780,-0.375650,-0.485542,-0.452553,-0.409659,-0.395542,-0.447453,-0.344994,-0.541144,-0.402246,-0.509642,-0.340831,-0.420931,-0.441294,-0.448031,-0.465198,-0.513844,-0.477394,-0.550612,-0.429349,-0.497009,-0.398277,-0.418833,-0.439361,-0.383850,-0.462546,-0.495125,-0.525044,-0.633475,-0.540245,-0.694258,-0.623434,-0.690623,-0.622450,-0.517847,-0.462337,-0.283279,-0.145482,-0.147778,0.075241,0.023871,0.134002,0.141100,0.113817,0.171238,0.140988,0.207287,0.232471,0.155340,0.218174,0.047384,0.216665,0.145630,0.036690,0.132517,0.048688,0.098813,0.022609,-0.007631,0.142218,-0.025418,0.047801,0.006666,-0.064799,0.016975,-0.063291,0.037201,0.014276,-0.007650,0.060313,-0.065091,0.039135,0.001365,0.111463,0.086744,0.027935,0.059616,-0.015258,0.023881,0.090269,-0.038050,0.099017,0.238303,0.462809,0.486312,0.491458,0.651936,0.688820,0.591131,0.575327,0.468034,0.538793,0.398684,0.671500,0.524158,0.288633,0.182645,0.073271,0.002225,-0.048542,-0.145005,-0.063969,-0.189636,-0.137016,-0.175022,-0.217150,-0.137998,-0.203000,-0.204479,-0.565700,-1.004310,-1.150498,-0.262059,2.013754,5.237632,7.260823,4.445175,-0.191682,-0.792551,-0.313326,-0.385216,-0.171291,-0.294932,-0.267246,-0.291408,-0.359330,-0.353288,-0.391553,-0.426829,-0.339133,-0.424121,-0.292887,-0.384758,-0.248087,-0.296463,-0.292437,-0.292569,-0.421707,-0.340817,-0.309061,-0.398320,-0.286521,-0.389154,-0.323329,-0.342138,-0.301521,-0.249162,-0.312170,-0.301429,-0.294979,-0.375594,-0.262794,-0.450076,-0.374663,-0.444604,-0.425658,-0.420607,-0.416499,-0.374988,-0.367318,-0.460706,-0.258392,-0.343291,-0.035191,-0.086193,0.060379,0.090307,0.199207,0.198577,0.336966,0.117721,0.406705,0.069436,0.406986,-0.001377,0.489358,-0.335184,0.000000,0.000000,1.000000
5.240791,5.193638,-0.415026,-0.510870,-0.461249,-0.179062,-0.276446,-0.113131,-0.275111,-0.153902,-0.314537,-0.175451,-0.425776,-0.207715,-0.385316,-0.303382,-0.223764,-0.271969,-0.261884,-0.276343,-0.340978,-0.210913,-0.345410,-0.201293,-0.357101,-0.282496,-0.335192,-0.353466,-0.250073,-0.203741,-0.291300,-0.142939,-0.276986,-0.179096,-0.262269,-0.324788,-0.346562,-0.388395,-0.300203,-0.371606,-0.410364,-0.359648,-0.450863,-0.275629,-0.372493,-0.212668,-0.092291,-0.021117,0.112347,0.155996,0.230241,0.395581,0.278363,0.373961,0.198724,0.204056,0.251052,0.182886,0.208710,0.166874,0.126700,0.140950,0.110592,0.297526,0.144913,0.132508,0.029882,0.040390,0.107375,-0.013292,-0.023309,0.063579,0.028598,0.112381,-0.017310,0.093760,0.074724,-0.025682,0.060026,-0.017903,0.005219,0.027281,-0.066807,0.080449,0.084485,0.079564,0.056899,0.036476,0.139869,0.147979,0.270697,0.381819,0.370721,0.522932,0.515916,0.706105,0.637654,0.571948,0.609582,0.501321,0.474917,0.698136,0.449899,0.238072,-0.040107,-0.119343,-0.179525,-0.143804,-0.117738,-0.167795,-0.147089,-0.003613,-0.188823,-0.032077,-0.233543,-0.146141,-0.462397,-0.764660,-0.925704,-1.444540,-0.632819,1.522255,4.796099,7.370281,4.469710,-0.127218,-0.975640,-0.548431,-0.449519,-0.478307,-0.372077,-0.410013,-0.445729,-0.346985,-0.424233,-0.291487,-0.473885,-0.431365,-0.419289,-0.538413,-0.458489,-0.501035,-0.459423,-0.416675,-0.489058,-0.377222,-0.440229,-0.441676,-0.434983,-0.494284,-0.399765,-0.464072,-0.464857,-0.373098,-0.527931,-0.420501,-0.570006,-0.575534,-0.601504,-0.650369,-0.734654,-0.830727,-0.799305,-0.696210,-0.890996,-0.559831,-0.634769,-0.345742,-0.233178,-0.098821,-0.027209,0.032813,0.019376,0.186961,0.029128,0.313557,0.023665,0.149942,-0.040996,0.098856,-0.044293,0.213270,-0.117682,0.448584,-0.587011,0.000000,0.000000,1.000000
4.979361,5.696663,0.297246,-0.756279,-0.729317,-0.287935,-0.550087,-0.276076,-0.430000,-0.357267,-0.386260,-0.327882,-0.344715,-0.327208,-0.492811,-0.303619,-0.540642,-0.393464,-0.488876,-0.410245,-0.411226,-0.412866,-0.408416,-0.342071,-0.457626,-0.353827,-0.485597,-0.364985,-0.417853,-0.438009,-0.356301,-0.442502,-0.435159,-0.449843,-0.574349,-0.513306,-0.612680,-0.633239,-0.761425,-0.766960,-0.643771,-0.794688,-0.630570,-0.529738,-0.462108,-0.184614,-0.170998,-0.002842,0.000094,0.031575,0.131028,0.084553,0.190976,0.175355,0.035273,0.096908,-0.020655,0.072803,0.060160,0.073766,0.134955,0.039641,0.024477,-0.049883,-0.023878,0.062833,-0.000393,-0.027123,-0.105125,-0.106078,-0.076273,-0.187440,-0.112768,-0.144312,-0.155648,-0.066519,-0.088078,-0.006488,-0.042303,-0.083063,-0.024602,-0.115597,-0.044052,-0.066460,-0.070744,0.079249,0.157919,0.282992,0.353074,0.461829,0.590950,0.515250,0.504828,0.419193,0.380825,0.409096,0.542947,0.482517,0.174364,-0.015698,-0.008640,-0.148304,-0.146622,-0.169731,-0.134211,-0.161999,-0.203149,-0.167458,-0.224872,-0.311232,-0.186176,-0.342422,-0.552219,-1.049560,-1.271707,0.148133,2.719963,6.183800,6.714548,2.183817,-0.816922,-0.559457,-0.263526,-0.323915,-0.301055,-0.306008,-0.333062,-0.293335,-0.319288,-0.378772,-0.302844,-0.343653,-0.256857,-0.327390,-0.237037,-0.191118,-0.302454,-0.269583,-0.286627,-0.312770,-0.271084,-0.356802,-0.217862,-0.358307,-0.280010,-0.248140,-0.304994,-0.197368,-0.163890,-0.300981,-0.246099,-0.401730,-0.261567,-0.433317,-0.373197,-0.468353,-0.484833,-0.440893,-0.406796,-0.363439,-0.155492,-0.192617,0.102753,0.077331,0.278706,0.258370,0.295060,0.350435,0.377428,0.324351,0.533936,0.309609,0.573139,0.303702,0.499000,0.205532,0.419134,0.133389,0.585019,-0.294680,0.000000,0.000000,0.000000,0.000000,0.000000,0.000000,0.000000,1.000000
4.448147,3.972169,-0.713584,-0.662186,-0.597748,-0.311413,-0.567979,-0.338436,-0.554190,-0.373979,-0.502776,-0.449220,-0.516887,-0.417578,-0.479391,-0.386058,-0.483413,-0.280354,-0.461702,-0.392725,-0.445053,-0.429306,-0.439471,-0.455073,-0.429901,-0.409774,-0.506017,-0.343800,-0.473463,-0.362855,-0.321818,-0.399008,-0.417030,-0.477678,-0.469808,-0.471224,-0.574735,-0.510476,-0.659110,-0.542475,-0.572907,-0.501417,-0.376644,-0.318341,-0.189541,-0.045539,-0.026906,0.133787,0.025019,0.175173,0.137569,0.144509,0.245733,0.191571,0.234426,0.236944,0.151758,0.179845,0.043638,0.138295,0.093278,0.057990,0.111463,0.013107,0.034846,0.076316,-0.037564,0.050979,-0.080755,-0.024348,-0.100233,-0.056725,-0.042763,-0.059889,-0.013050,-0.039749,-0.053996,0.030795,-0.087755,0.013344,-0.052138,-0.084904,-0.012853,-0.073569,-0.030659,0.007034,0.084049,0.317529,0.242426,0.350700,0.343911,0.402842,0.510531,0.452535,0.482877,0.405286,0.366018,0.441688,0.538889,0.454797,0.132639,-0.048508,-0.134618,-0.189497,-0.184531,-0.192083,-0.234723,-0.159684,-0.227359,-0.106238,-0.172823,-0.344836,-0.794212,-1.283341,-1.036931,0.406915,1.774652,4.159241,5.736881,6.937074,4.205651,-0.231444,-0.476382,-0.291691,-0.275077,-0.356435,-0.426100,-0.340237,-0.474624,-0.322167,-0.455054,-0.418459,-0.390716,-0.456130,-0.328051,-0.321183,-0.347991,-0.287242,-0.420064,-0.310479,-0.430661,-0.381934,-0.353705,-0.414857,-0.337305,-0.321472,-0.376103,-0.271321,-0.452931,-0.310669,-0.403237,-0.325832,-0.389341,-0.416066,-0.372312,-0.404403,-0.398733,-0.317685,-0.456360,-0.331186,-0.415130,-0.236470,-0.188711,-0.038052,-0.000127,0.017989,0.027714,0.175395,0.092255,0.263809,0.062242,0.185621,0.091638,0.120232,0.082840,0.155232,-0.057320,0.228432,-0.156699,0.442059,-0.532851,0.000000,0.000000,0.000000,0.000000,0.000000,0.000000,1.000000
5.348289,6.539138,0.393887,-0.420194,-0.370237,-0.137743,-0.357467,-0.330490,-0.364170,-0.362003,-0.380552,-0.307778,-0.483432,-0.276096,-0.479390,-0.275990,-0.301978,-0.281713,-0.271877,-0.328521,-0.330851,-0.315333,-0.420296,-0.258832,-0.412477,-0.289534,-0.291375,-0.319853,-0.253690,-0.358938,-0.339235,-0.297266,-0.354151,-0.276389,-0.434665,-0.297146,-0.393158,-0.346002,-0.304263,-0.372629,-0.351333,-0.323673,-0.280867,-0.091210,-0.058863,0.121212,0.037969,0.130846,0.195298,0.226008,0.276316,0.242453,0.163673,0.278239,0.102985,0.250297,0.147898,0.129661,0.157672,0.113456,0.217845,0.101916,0.015312,-0.003241,-0.107959,0.009530,-0.101480,-0.066274,-0.018623,-0.095479,0.006601,-0.104915,-0.110405,-0.025584,-0.142843,-0.030626,-0.126782,-0.026739,-0.035083,0.016746,0.032693,0.039800,0.095154,0.207749,0.216067,0.391888,0.357461,0.486173,0.658083,0.646069,0.603473,0.522439,0.576870,0.559999,0.491787,0.456943,0.571521,0.484188,0.208585,0.005665,-0.109486,-0.147013,-0.056998,-0.081639,-0.127250,-0.096261,-0.224055,-0.169589,-0.225924,-0.526249,-0.825457,-1.346249,-1.028875,0.842307,3.790176,6.580464,4.440942,0.101381,-0.958605,-0.462329,-0.497234,-0.393476,-0.314580,-0.422964,-0.465348,-0.369829,-0.463733,-0.326092,-0.458937,-0.467565,-0.423783,-0.427081,-0.455840,-0.408726,-0.438313,-0.346263,-0.397962,-0.284036,-0.375529,-0.355673,-0.408989,-0.479424,-0.390637,-0.409838,-0.517374,-0.361890,-0.428084,-0.315816,-0.419623,-0.326873,-0.472009,-0.523572,-0.545444,-0.504915,-0.595157,-0.535243,-0.718374,-0.506083,-0.554241,-0.316846,-0.240330,-0.147624,-0.046222,0.006508,-0.074522,0.088071,-0.078371,0.097904,-0.035670,0.175208,0.051973,0.169208,-0.022429,0.239468,-0.166217,0.372886,-0.673899,0.000000,0.000000,0.000000,0.000000,0.000000,0.000000,0.000000,0.000000,0.000000,0.000000,1.000000
4.849866,6.008159,0.568244,-0.661217,-0.543632,-0.211462,-0.400348,-0.073360,-0.341634,-0.267342,-0.296780,-0.260090,-0.262826,-0.229472,-0.398862,-0.237767,-0.329715,-0.277050,-0.312436,-0.265028,-0.252181,-0.219192,-0.195662,-0.174939,-0.264069,-0.211033,-0.374805,-0.243379,-0.270541,-0.361320,-0.265128,-0.257031,-0.215809,-0.235553,-0.231495,-0.263926,-0.418392,-0.381259,-0.393997,-0.426582,-0.422620,-0.538077,-0.448164,-0.369421,-0.279802,-0.051089,-0.074393,0.125480,0.122187,0.110493,0.181467,0.140670,0.164459,0.196339,0.217609,0.310111,0.219008,0.249995,0.243155,0.197281,0.217116,0.084783,0.127170,0.122264,0.119665,0.153457,0.140608,0.161094,0.144251,0.041236,0.093228,-0.048186,0.068855,-0.044988,-0.052555,0.072809,-0.049428,0.044585,0.073219,-0.048757,0.019732,0.017619,0.094494,-0.045213,0.062406,0.200840,0.298113,0.438188,0.473319,0.582625,0.675604,0.493983,0.569898,0.558923,0.593956,0.508956,0.372675,0.596205,0.513838,0.254336,0.080683,-0.171617,-0.069853,-0.151554,-0.075816,-0.116360,-0.200709,-0.034358,-0.136712,-0.127953,-0.086329,-0.295192,-0.466296,-0.885829,-1.200548,-0.306627,2.007820,5.517733,6.953656,3.003854,-0.598995,-0.786270,-0.387351,-0.420989,-0.310879,-0.346500,-0.367672,-0.330442,-0.420355,-0.409685,-0.437760,-0.598385,-0.408259,-0.499342,-0.412033,-0.499698,-0.519351,-0.403649,-0.432859,-0.528636,-0.437122,-0.498312,-0.448562,-0.499311,-0.402811,-0.469207,-0.465577,-0.447204,-0.471522,-0.434027,-0.422453,-0.555624,-0.424532,-0.652269,-0.550526,-0.702015,-0.782940,-0.804482,-0.809793,-0.755611,-0.651773,-0.704277,-0.474625,-0.515485,-0.224156,-0.258256,-0.045082,-0.019536,0.045433,0.017907,0.130270,0.002038,0.258344,-0.043997,0.266561,-0.053113,0.225819,-0.170997,0.244569,-0.511192,0.000000,0.000000,0.000000,0.000000,0.000000,0.000000,0.000000,1.000000
5.107447,4.743036,-0.315376,-0.495492,-0.424296,-0.108613,-0.286693,-0.055121,-0.298586,-0.082185,-0.298113,-0.197196,-0.287130,-0.371747,-0.322556,-0.254897,-0.318167,-0.244136,-0.412792,-0.215237,-0.275059,-0.319536,-0.316238,-0.281296,-0.322029,-0.288492,-0.290058,-0.239739,-0.341120,-0.245232,-0.322576,-0.262348,-0.249402,-0.358499,-0.288756,-0.399827,-0.444838,-0.431954,-0.639662,-0.588726,-0.662597,-0.585554,-0.505286,-0.519462,-0.375354,-0.320530,-0.165150,-0.040651,0.008755,0.189833,0.151567,0.211790,0.243778,0.207193,0.330501,0.239571,0.272864,0.289861,0.194354,0.247142,0.092674,0.186571,0.193445,0.086501,0.098585,0.041004,0.093099,0.092621,0.054487,0.074903,0.000705,-0.005116,-0.054280,-0.108865,-0.002401,-0.074046,-0.004364,-0.012007,-0.044512,0.060621,-0.034825,-0.012925,0.019297,-0.053541,0.049568,-0.074920,0.057396,0.051806,0.080831,0.202831,0.252083,0.337659,0.401206,0.430025,0.611177,0.533863,0.561882,0.475038,0.427091,0.487413,0.408721,0.626997,0.475043,0.099255,0.048416,-0.216329,-0.062935,-0.185314,-0.169671,-0.171090,-0.231513,-0.151754,-0.150595,-0.261983,-0.221263,-0.852345,-1.123550,-1.544863,-0.355533,0.906268,2.891379,6.014268,7.229729,2.918245,-0.827605,-0.568267,-0.401790,-0.393698,-0.476995,-0.458978,-0.544551,-0.436261,-0.441585,-0.476289,-0.396453,-0.485234,-0.412774,-0.470813,-0.444813,-0.384347,-0.398934,-0.392541,-0.448724,-0.465182,-0.376953,-0.521768,-0.373117,-0.479518,-0.451109,-0.424247,-0.498898,-0.457975,-0.392778,-0.434291,-0.351529,-0.490635,-0.355294,-0.480738,-0.402251,-0.494936,-0.559097,-0.536027,-0.482231,-0.573911,-0.419125,-0.513537,-0.234538,-0.347507,-0.122501,-0.056431,0.027234,0.082608,0.187300,0.052214,0.243179,0.020344,0.363986,0.061353,0.294781,-0.016316,0.237879,-0.085745,0.373895,-0.547490,0.000000,0.000000,0.000000,1.000000
5.577627,5.522254,-0.420919,-0.383950,-0.417278,-0.086883,-0.423199,-0.196363,-0.461650,-0.245053,-0.326605,-0.269850,-0.304127,-0.250418,-0.336033,-0.230333,-0.366743,-0.183225,-0.280632,-0.194907,-0.299498,-0.296602,-0.248943,-0.305075,-0.297656,-0.232334,-0.367964,-0.215603,-0.358620,-0.300663,-0.260435,-0.256245,-0.220182,-0.280671,-0.262349,-0.246917,-0.313610,-0.254000,-0.432674,-0.370498,-0.346178,-0.390623,-0.317893,-0.320700,-0.184079,-0.103727,-0.096489,0.161130,0.121711,0.269597,0.320907,0.274140,0.348693,0.275778,0.397944,0.400694,0.312457,0.352663,0.213802,0.314424,0.248156,0.187631,0.274927,0.167279,0.183798,0.203842,0.106227,0.211225,0.045734,0.104246,0.027914,0.022000,0.031421,-0.083429,-0.033979,-0.044291,-0.122279,-0.001939,-0.092482,-0.011237,0.016303,-0.070422,0.003048,-0.090565,-0.053580,-0.022605,-0.050940,0.025145,-0.002720,0.154924,0.252179,0.275190,0.409166,0.294268,0.459450,0.533914,0.493901,0.551866,0.401583,0.567773,0.443870,0.576748,0.502677,0.057295,0.049886,-0.144282,-0.164583,-0.089762,-0.193549,-0.146212,-0.186621,-0.219840,-0.133911,-0.264764,-0.225014,-0.307536,-0.678479,-1.051292,-1.441900,-0.288494,2.165982,5.612586,7.035721,2.595426,-1.002775,-0.680200,-0.450659,-0.375209,-0.493348,-0.391565,-0.471566,-0.470735,-0.420041,-0.565206,-0.489952,-0.522133,-0.498309,-0.459056,-0.496630,-0.453018,-0.521053,-0.568329,-0.427072,-0.502956,-0.391515,-0.537008,-0.501267,-0.483070,-0.574797,-0.499907,-0.518767,-0.537874,-0.446896,-0.552106,-0.420440,-0.490199,-0.360177,-0.421907,-0.464719,-0.457799,-0.524083,-0.582574,-0.451205,-0.641838,-0.462570,-0.610473,-0.357500,-0.332265,-0.176307,0.004924,0.093110,0.057966,0.197261,-0.033896,0.220445,-0.006791,0.185036,0.013625,0.220604,0.024753,0.288359,-0.102930,0.536392,-0.623799,0.000000,0.000000,0.000000,1.000000
5.556949,5.395399,-0.656148,-0.473392,-0.483955,-0.038223,-0.412790,-0.134839,-0.335353,-0.239074,-0.292890,-0.287891,-0.405993,-0.257122,-0.401205,-0.218568,-0.360783,-0.239203,-0.341585,-0.373347,-0.303075,-0.269495,-0.273271,-0.258352,-0.403944,-0.236927,-0.423989,-0.314568,-0.343717,-0.353229,-0.292123,-0.332513,-0.299355,-0.257480,-0.251326,-0.161907,-0.317779,-0.244133,-0.335140,-0.400574,-0.297320,-0.406980,-0.357946,-0.358622,-0.308486,-0.079194,-0.098545,0.214225,0.260358,0.294609,0.370295,0.256609,0.324024,0.331538,0.269057,0.354373,0.291628,0.384769,0.338310,0.327065,0.416121,0.257327,0.290616,0.201822,0.108347,0.225038,0.102531,0.154695,0.063500,0.024781,0.146580,0.072860,0.124813,0.053272,-0.074329,0.035821,-0.100592,0.033203,0.023389,-0.054695,0.046996,-0.104083,0.036082,0.032926,0.052387,0.135794,0.045604,0.080450,0.024811,-0.005467,0.094976,0.105788,0.370277,0.382102,0.495181,0.657427,0.646443,0.707200,0.640180,0.548672,0.612646,0.338549,0.710918,0.704409,0.405633,0.280072,0.039088,0.015206,-0.086887,-0.180272,-0.085030,-0.203231,-0.184628,-0.305920,-0.229929,-0.249351,-0.367683,-0.355062,-0.792233,-1.132014,-1.411483,-0.593231,1.742917,5.199759,7.041890,3.496398,-0.641574,-0.908831,-0.599151,-0.562895,-0.432686,-0.481363,-0.336552,-0.441717,-0.470556,-0.444512,-0.450931,-0.458855,-0.539078,-0.583700,-0.514404,-0.563869,-0.445785,-0.544453,-0.509874,-0.483271,-0.553521,-0.391468,-0.476464,-0.495978,-0.409071,-0.498715,-0.446941,-0.480588,-0.454100,-0.404592,-0.357474,-0.313305,-0.387326,-0.438194,-0.379993,-0.491215,-0.411425,-0.622072,-0.552991,-0.664263,-0.675893,-0.668013,-0.658761,-0.649762,-0.390420,-0.452479,-0.152311,-0.227989,0.041416,-0.034260,0.034466,0.036774,0.196438,0.093391,0.339248,0.014348,0.412532,-0.173056,0.545571,-0.533720,0.000000,1.000000
4.253470,4.924659,0.242207,-0.911077,-0.921708,-0.472954,-0.650375,-0.390006,-0.611058,-0.411724,-0.603574,-0.457273,-0.544433,-0.529557,-0.490105,-0.511700,-0.583739,-0.464588,-0.561867,-0.390723,-0.500182,-0.443407,-0.493050,-0.526663,-0.482836,-0.496142,-0.544338,-0.459604,-0.583810,-0.420150,-0.517761,-0.432294,-0.436735,-0.556344,-0.554106,-0.625442,-0.670002,-0.646108,-0.779381,-0.672189,-0.743573,-0.647750,-0.642381,-0.555989,-0.413248,-0.325210,-0.232824,-0.054979,-0.045416,0.099523,-0.005161,0.106561,0.080574,0.095506,0.129714,0.043410,0.002439,0.023545,-0.090206,0.042416,-0.054320,0.023938,-0.043019,-0.055748,0.017096,-0.011448,0.002171,-0.033444,-0.131372,-0.025097,-0.180936,-0.123971,-0.136984,-0.184851,-0.100290,-0.165690,-0.113104,-0.082418,-0.077887,0.047462,-0.057968,0.010863,-0.045793,-0.093887,0.001742,-0.079558,-0.049113,0.028816,-0.003448,0.206852,0.236550,0.425858,0.376745,0.444328,0.568982,0.477703,0.448244,0.397165,0.395930,0.410952,0.443554,0.686039,0.358910,0.238117,0.123474,0.000873,-0.033289,-0.054446,-0.155003,-0.056352,-0.189940,-0.028509,-0.136669,-0.094950,-0.269151,-0.618697,-0.969368,-0.702934,0.894608,3.747967,6.283690,6.824413,3.586517,-0.410351,-0.681786,-0.328857,-0.213457,-0.289922,-0.333802,-0.347899,-0.424572,-0.339435,-0.339345,-0.364526,-0.287023,-0.315119,-0.265129,-0.307081,-0.346558,-0.251509,-0.381433,-0.191067,-0.289667,-0.250425,-0.182244,-0.297741,-0.234606,-0.230257,-0.233690,-0.219489,-0.316711,-0.236833,-0.317365,-0.213215,-0.202589,-0.333615,-0.289069,-0.325207,-0.331329,-0.271546,-0.364937,-0.248017,-0.261264,-0.137860,-0.087855,0.036330,0.095814,0.204683,0.183956,0.316042,0.238700,0.418955,0.253819,0.395835,0.205438,0.235372,0.190882,0.276770,0.137301,0.428309,0.012632,0.528273,-0.354899,0.000000,0.000000,0.000000,0.000000,1.000000
5.587144,5.832484,-0.210407,-0.898408,-0.763166,-0.317242,-0.575321,-0.473580,-0.635672,-0.581839,-0.665342,-0.484834,-0.661662,-0.470633,-0.573238,-0.462937,-0.528221,-0.561611,-0.497600,-0.559366,-0.498223,-0.406861,-0.559194,-0.330802,-0.528473,-0.445233,-0.455409,-0.431681,-0.436563,-0.497556,-0.498767,-0.479593,-0.512427,-0.342776,-0.556330,-0.508533,-0.538801,-0.563302,-0.499822,-0.561049,-0.523921,-0.450970,-0.409957,-0.274283,-0.203602,-0.075721,0.012951,0.044086,0.133183,0.130039,0.222823,0.210933,0.178245,0.200828,0.012236,0.102628,0.081612,0.045953,0.180401,0.062640,0.105524,0.038011,-0.044721,0.024246,-0.065115,-0.012076,-0.051602,-0.124358,-0.015323,-0.130139,0.021220,-0.015118,-0.088167,-0.041967,-0.184267,-0.104621,-0.124061,-0.138224,-0.069709,-0.112892,-0.065242,-0.020720,0.006174,0.114436,0.075769,0.297781,0.341724,0.341363,0.460412,0.455933,0.616343,0.582872,0.467536,0.540258,0.505520,0.632119,0.682745,0.314165,0.222926,-0.037335,-0.015184,-0.061300,-0.093118,-0.025138,-0.064278,-0.082695,-0.142440,-0.202165,-0.121303,-0.280141,-0.483955,-0.928451,-1.289501,-0.329491,1.960310,5.369702,6.696901,2.529926,-0.797134,-0.560653,-0.267455,-0.266381,-0.274494,-0.265585,-0.335553,-0.237041,-0.272066,-0.346789,-0.233749,-0.396605,-0.287799,-0.364821,-0.317187,-0.278688,-0.304823,-0.226004,-0.216925,-0.276359,-0.206304,-0.368625,-0.249740,-0.338911,-0.294751,-0.230861,-0.264960,-0.234530,-0.154990,-0.234412,-0.142270,-0.385291,-0.246220,-0.359428,-0.328397,-0.342027,-0.367279,-0.322560,-0.340367,-0.268948,-0.031487,-0.156793,0.109363,-0.009095,0.149503,0.171661,0.185356,0.224343,0.321564,0.122288,0.382707,0.189732,0.474211,0.131985,0.361071,0.098567,0.307572,-0.043394,0.413790,-0.562323,0.000000,0.000000,0.000000,0.000000,0.000000,0.000000,0.000000,0.000000,0.000000,1.000000
5.421445,5.608425,-0.368858,-0.584420,-0.462509,-0.079353,-0.368853,-0.118741,-0.378332,-0.179229,-0.251166,-0.274510,-0.267775,-0.264203,-0.366284,-0.235625,-0.387866,-0.190699,-0.318878,-0.190448,-0.189135,-0.215502,-0.199151,-0.261943,-0.304630,-0.220831,-0.346830,-0.167843,-0.242781,-0.208805,-0.134618,-0.169354,-0.125173,-0.253521,-0.314290,-0.227551,-0.379577,-0.250916,-0.382898,-0.281908,-0.318280,-0.290307,-0.037709,-0.067312,0.054446,0.144411,0.096489,0.303100,0.216367,0.299493,0.392170,0.253773,0.368715,0.363066,0.439430,0.399471,0.273610,0.369996,0.207992,0.258225,0.193456,0.088221,0.213531,0.130043,0.149057,0.140832,0.060519,0.104019,-0.012303,-0.021246,-0.034401,-0.070322,0.024979,-0.011954,0.094097,0.009838,-0.140129,-0.052563,-0.067351,0.026456,0.052850,-0.033789,0.000387,-0.142879,0.089452,0.036737,-0.055755,0.116255,0.109049,0.281940,0.350336,0.411904,0.690291,0.621351,0.730819,0.586515,0.582671,0.497206,0.507794,0.578171,0.241810,-0.022998,-0.110647,-0.238252,-0.140386,-0.197817,-0.159395,-0.140050,-0.304641,-0.274725,-0.179367,-0.280052,-0.242486,-0.741280,-0.849301,-1.423043,-1.527051,-0.273461,2.051742,5.865103,6.717140,2.292186,-0.876030,-0.828262,-0.465862,-0.434610,-0.470144,-0.402938,-0.469722,-0.410062,-0.384293,-0.471068,-0.380049,-0.554467,-0.456407,-0.570512,-0.574570,-0.478315,-0.531359,-0.458966,-0.391090,-0.434571,-0.406693,-0.477844,-0.341732,-0.551381,-0.482033,-0.413959,-0.447893,-0.410783,-0.457167,-0.492549,-0.279794,-0.548704,-0.380608,-0.581968,-0.648096,-0.676963,-0.700721,-0.726129,-0.733422,-0.779635,-0.554619,-0.623262,-0.227705,-0.211859,-0.014295,0.044869,0.020269,0.022172,0.090029,0.086203,0.364968,0.043383,0.255698,-0.026472,0.161468,-0.139938,0.197176,-0.133513,0.424199,-0.688531,0.000000,0.000000,0.000000,0.000000,0.000000,1.000000
4.978332,4.468226,-0.510420,-0.619019,-0.582219,-0.159060,-0.465664,-0.194942,-0.405622,-0.252110,-0.305764,-0.287363,-0.320402,-0.327842,-0.424158,-0.332274,-0.529331,-0.313864,-0.433933,-0.331787,-0.303857,-0.277188,-0.309211,-0.323526,-0.273034,-0.326006,-0.442115,-0.252660,-0.352282,-0.274258,-0.324108,-0.377848,-0.200324,-0.337200,-0.342042,-0.336549,-0.565754,-0.489000,-0.599578,-0.555087,-0.614614,-0.630307,-0.490616,-0.462676,-0.248584,-0.036728,-0.020793,0.207758,0.079377,0.160943,0.147512,0.197872,0.388295,0.255202,0.245939,0.212719,0.136715,0.126822,0.102844,0.192398,0.201463,0.055033,0.144119,0.057367,0.081281,-0.007416,-0.053245,0.098548,-0.076866,-0.001536,-0.008428,-0.029397,0.028646,-0.045906,-0.002452,-0.027439,0.012501,0.129396,-0.026181,0.041436,0.056286,0.049375,0.084179,-0.087769,-0.003067,-0.053312,0.056709,0.372299,0.312614,0.393485,0.450663,0.555718,0.622786,0.515508,0.617008,0.511888,0.465122,0.645747,0.510042,0.259382,-0.010621,-0.203726,-0.098353,-0.231746,-0.127568,-0.224657,-0.262602,-0.146427,-0.206893,-0.173882,-0.195918,-0.429552,-0.694106,-1.073876,-1.259962,-0.204549,2.078852,5.377008,7.388802,4.264692,-0.322255,-0.830893,-0.398359,-0.407852,-0.307482,-0.357428,-0.304814,-0.294134,-0.416728,-0.374680,-0.495605,-0.450592,-0.363437,-0.427800,-0.344816,-0.458149,-0.419843,-0.401484,-0.393109,-0.345722,-0.427098,-0.460111,-0.394619,-0.506168,-0.346319,-0.457344,-0.346117,-0.343035,-0.320986,-0.241114,-0.301446,-0.381868,-0.319606,-0.468689,-0.367205,-0.554680,-0.471742,-0.587045,-0.559990,-0.571639,-0.563567,-0.658521,-0.503150,-0.549173,-0.224146,-0.253425,0.057856,0.051925,0.228356,0.215918,0.304562,0.336590,0.482896,0.251346,0.568147,0.135939,0.515186,0.052301,0.558507,-0.275276,0.000000,0.000000,0.000000,0.000000,0.000000,0.000000,0.000000,1.000000
5.230681,6.503779,1.225161,-0.793832,-1.127236,-0.405296,-0.407654,-0.205375,-0.422021,-0.230553,-0.437779,-0.312004,-0.355389,-0.355126,-0.359327,-0.418072,-0.293017,-0.237859,-0.323923,-0.196092,-0.344974,-0.269628,-0.299690,-0.257909,-0.158080,-0.293759,-0.257480,-0.279859,-0.341381,-0.226323,-0.365895,-0.219569,-0.322024,-0.287100,-0.236692,-0.306743,-0.231883,-0.261896,-0.249514,-0.174155,-0.277205,-0.252203,-0.310400,-0.331992,-0.199615,-0.277999,-0.180207,-0.221762,-0.077423,0.136648,0.142090,0.209685,0.281115,0.214958,0.300717,0.272553,0.317283,0.240467,0.169088,0.292869,0.215469,0.300196,0.203821,0.167607,0.275251,0.056466,0.177869,0.034324,0.002866,0.082760,-0.020528,0.073254,-0.021052,-0.068151,0.064575,-0.129333,-0.011222,-0.078716,-0.173464,-0.132382,-0.240479,-0.165091,-0.164604,-0.146244,-0.022974,-0.121615,-0.065999,-0.120202,-0.145998,-0.102719,-0.234760,-0.041163,0.084686,0.237677,0.313660,0.376508,0.532973,0.540659,0.542229,0.505085,0.352726,0.424063,0.308761,0.326643,0.524971,0.085994,0.009406,-0.207583,-0.192092,-0.078537,-0.267143,-0.290729,-0.309977,-0.360204,-0.277086,-0.388586,-0.228213,-0.320730,-0.615249,-0.964372,-1.450651,-0.502486,1.798808,5.418777,6.876857,2.702986,-0.719555,-0.827406,-0.412811,-0.371672,-0.402055,-0.451761,-0.498999,-0.528742,-0.379984,-0.519347,-0.417537,-0.488651,-0.367905,-0.308322,-0.378090,-0.402355,-0.459416,-0.400550,-0.410040,-0.514132,-0.379385,-0.403914,-0.268583,-0.289351,-0.366756,-0.308149,-0.353791,-0.367355,-0.245687,-0.420689,-0.232463,-0.426463,-0.458777,-0.446092,-0.527362,-0.426585,-0.493682,-0.644614,-0.471757,-0.666618,-0.479114,-0.503099,-0.309167,-0.140796,-0.132960,0.035094,0.192333,0.181341,0.433042,0.138196,0.277050,0.082039,0.369026,0.184322,0.270672,0.126797,0.461854,0.025692,0.557419,-0.413111,0.000000,1.000000
4.999535,5.180226,-0.158113,-0.814670,-0.724249,-0.277595,-0.532319,-0.384866,-0.585320,-0.516639,-0.514735,-0.445620,-0.563321,-0.429311,-0.536946,-0.283077,-0.451366,-0.383023,-0.524515,-0.434772,-0.450735,-0.511021,-0.491604,-0.401219,-0.396670,-0.263349,-0.430303,-0.342472,-0.384865,-0.416138,-0.310098,-0.405678,-0.355625,-0.348726,-0.557901,-0.430971,-0.586560,-0.473416,-0.498293,-0.660581,-0.552627,-0.631930,-0.609178,-0.485818,-0.464197,-0.162071,-0.219713,-0.040765,0.107378,0.128096,0.327672,0.179454,0.152047,0.114203,0.193456,0.255584,0.116305,0.177632,0.254864,0.188872,0.203665,0.103177,0.187595,0.100976,0.024242,0.107111,0.026060,0.062743,-0.060229,-0.088502,0.091341,-0.040873,0.079614,-0.070357,-0.110552,-0.065959,-0.136853,-0.069754,-0.082423,-0.117835,-0.001179,-0.082012,-0.001515,-0.001722,0.035059,0.041283,-0.048447,0.086214,0.188612,0.234232,0.441099,0.365383,0.569948,0.533350,0.599462,0.618878,0.531214,0.526955,0.526857,0.455962,0.637926,0.485742,0.352882,0.058800,-0.139763,-0.082992,-0.148508,-0.115247,-0.135030,-0.130486,-0.171160,-0.264329,-0.160946,-0.254675,-0.495111,-0.856423,-1.316087,-0.493443,1.769504,5.051945,7.366037,4.241336,-0.155522,-0.893867,-0.403755,-0.346342,-0.324024,-0.227735,-0.334180,-0.301773,-0.281083,-0.474686,-0.348538,-0.435915,-0.344285,-0.327499,-0.430212,-0.320339,-0.313196,-0.271650,-0.280674,-0.368728,-0.320548,-0.412387,-0.328448,-0.374739,-0.332012,-0.271035,-0.291340,-0.267255,-0.260553,-0.362690,-0.194280,-0.378299,-0.251187,-0.428654,-0.427809,-0.470507,-0.541511,-0.565768,-0.489531,-0.564741,-0.424528,-0.530867,-0.312852,-0.345845,-0.144178,0.030486,0.074183,0.124706,0.301630,0.212111,0.440063,0.209182,0.465379,0.264986,0.439800,0.231846,0.419948,0.074918,0.582653,-0.291466,0.000000,0.000000,0.000000,0.000000,0.000000,1.000000
4.732120,5.146677,-0.076995,-0.810034,-0.746011,-0.316783,-0.582092,-0.255550,-0.524723,-0.364698,-0.456687,-0.499437,-0.555158,-0.461633,-0.558707,-0.365912,-0.599643,-0.406276,-0.481052,-0.362532,-0.433292,-0.440865,-0.483396,-0.474827,-0.506312,-0.436264,-0.511399,-0.359398,-0.447055,-0.369880,-0.402093,-0.453899,-0.370098,-0.433215,-0.438814,-0.456868,-0.600031,-0.516325,-0.678952,-0.632079,-0.640284,-0.624211,-0.594613,-0.580438,-0.523588,-0.400694,-0.388338,-0.078773,-0.134400,-0.004300,0.068229,0.101200,0.179225,0.141802,0.163860,0.222977,0.128533,0.214481,0.085976,0.126184,0.098343,0.101847,0.137269,0.047330,0.083580,0.115418,0.103002,0.204347,0.062370,0.121046,0.075945,0.031555,0.096277,-0.019254,-0.002763,0.036034,-0.038485,0.055228,-0.044771,0.053557,0.000756,0.062025,0.098461,0.008722,0.075898,0.025860,-0.021989,0.011470,-0.134947,0.067671,-0.015507,0.004884,0.078728,0.057100,0.266973,0.370046,0.338154,0.499245,0.525667,0.656342,0.550160,0.522503,0.582106,0.428221,0.681331,0.574646,0.226510,0.197371,-0.018649,0.076020,-0.104403,-0.016864,-0.038895,-0.093352,-0.082607,-0.036400,-0.133252,0.003954,-0.293773,-0.529234,-1.097559,-1.057384,0.344104,2.677530,6.003534,7.326550,3.562582,-0.579938,-0.518259,-0.175591,-0.331619,-0.283171,-0.336124,-0.411906,-0.358034,-0.410934,-0.362600,-0.314482,-0.425209,-0.372051,-0.468041,-0.382969,-0.377194,-0.408864,-0.400797,-0.391561,-0.362291,-0.346090,-0.439779,-0.375755,-0.485312,-0.378117,-0.421818,-0.443242,-0.389932,-0.407601,-0.384970,-0.316548,-0.420488,-0.328258,-0.499744,-0.422838,-0.464411,-0.433303,-0.399473,-0.371919,-0.322933,-0.142629,-0.210463,0.064954,-0.001752,0.244835,0.194470,0.186649,0.162444,0.213706,0.144934,0.233984,0.077058,0.303472,0.056350,0.275718,-0.036450,0.205709,-0.100128,0.327276,-0.496787,1.000000
5.858685,5.854179,-0.500210,-0.511923,-0.380057,-0.189758,-0.469094,-0.225010,-0.566063,-0.312837,-0.527324,-0.358567,-0.408041,-0.393419,-0.487441,-0.436158,-0.525955,-0.345108,-0.512362,-0.397062,-0.489166,-0.374287,-0.415026,-0.436679,-0.471453,-0.469637,-0.512383,-0.388379,-0.553465,-0.405445,-0.480395,-0.423341,-0.381838,-0.420153,-0.417903,-0.460056,-0.557806,-0.446274,-0.551417,-0.416584,-0.454044,-0.376504,-0.226088,-0.201674,-0.062285,0.073432,0.111958,0.330956,0.142545,0.241625,0.181327,0.222076,0.205357,0.170521,0.213469,0.225236,0.147129,0.186588,0.014688,0.139619,0.041036,0.054882,0.038502,-0.051595,0.014704,-0.015530,-0.022023,0.010422,-0.133475,-0.025463,-0.160577,-0.116818,-0.053712,-0.112353,-0.058016,-0.048072,-0.082374,0.031461,-0.090321,0.091885,-0.037083,-0.007067,0.012168,-0.058415,0.033099,0.017206,0.074312,0.339549,0.303964,0.554424,0.522594,0.658604,0.701705,0.526725,0.517475,0.533093,0.408187,0.745769,0.485127,0.356695,0.140326,0.080335,0.189743,0.001919,-0.017270,-0.088546,-0.137440,-0.087460,-0.226531,-0.194078,-0.191741,-0.151697,-0.159731,-0.551478,-0.924896,-1.437280,-0.507866,2.271051,5.867568,6.534922,1.223309,-1.087493,-0.285530,-0.376081,-0.213829,-0.319682,-0.401306,-0.326487,-0.437166,-0.334197,-0.419992,-0.333284,-0.260259,-0.329210,-0.253307,-0.265958,-0.301527,-0.180244,-0.304808,-0.222964,-0.359187,-0.275049,-0.295826,-0.294407,-0.220908,-0.313785,-0.300147,-0.191632,-0.278145,-0.160539,-0.391721,-0.271561,-0.327973,-0.413236,-0.384406,-0.422300,-0.428863,-0.348678,-0.429421,-0.208156,-0.393002,-0.233438,-0.202988,-0.057940,-0.002759,0.039139,0.055704,0.211224,-0.041425,0.266761,0.013102,0.234352,0.027767,0.086381,-0.118669,-0.035653,-0.189339,0.150476,-0.396032,0.339512,-0.798477,0.000000,0.000000,0.000000,0.000000,0.000000,0.000000,1.000000
5.063787,4.318395,-0.985278,-0.089990,-0.274469,0.059630,-0.134364,-0.098460,-0.198945,-0.112251,-0.229622,-0.089587,-0.242750,0.015998,-0.149776,-0.030577,-0.062407,-0.068509,-0.021008,-0.019460,-0.071130,-0.053460,-0.147877,-0.012027,-0.138970,0.015521,-0.086944,-0.096473,-0.006859,-0.034543,0.012079,-0.077242,-0.149626,-0.027621,-0.223968,-0.143797,-0.209205,-0.207768,-0.150612,-0.195765,-0.059989,-0.094538,-0.116591,0.048267,0.067552,0.233379,0.208962,0.262776,0.383189,0.230946,0.361566,0.336381,0.309349,0.373211,0.187594,0.229219,0.057124,0.140253,0.188157,0.075859,0.150519,0.116988,0.120937,0.164382,0.070619,0.076432,-0.040641,0.005727,0.082617,-0.074729,-0.043690,-0.110021,-0.050429,0.004595,-0.107568,-0.048258,-0.044817,-0.088457,-0.032464,-0.160587,-0.052392,-0.011870,0.053636,0.054157,-0.007785,0.221708,0.291252,0.332761,0.383025,0.289807,0.508038,0.430941,0.565931,0.488163,0.465500,0.456755,0.418954,0.558194,0.356837,-0.014177,-0.058185,-0.309009,-0.254423,-0.245834,-0.255493,-0.173489,-0.292200,-0.287594,-0.183795,-0.336535,-0.320348,-0.799531,-1.199574,-1.561918,-0.505788,0.703507,2.460061,5.191643,7.093831,4.337127,-0.156627,-1.089366,-0.558127,-0.494029,-0.537700,-0.440876,-0.607010,-0.604780,-0.518436,-0.611207,-0.482090,-0.623671,-0.497497,-0.424961,-0.462515,-0.539035,-0.610007,-0.558098,-0.519170,-0.601628,-0.440518,-0.539490,-0.461466,-0.548277,-0.532688,-0.600679,-0.669855,-0.599748,-0.435206,-0.646721,-0.576375,-0.718129,-0.585720,-0.815814,-0.797162,-0.853410,-0.898338,-0.858247,-0.803278,-0.910534,-0.653745,-0.681303,-0.325885,-0.356397,-0.121563,-0.120366,-0.034307,-0.011595,0.050078,-0.102787,0.162775,-0.132677,0.228489,-0.073932,0.081383,-0.104706,0.149735,-0.203909,0.321734,-0.692321,0.000000,0.000000,0.000000,0.000000,0.000000,0.000000,0.000000,1.000000
5.134195,5.929303,0.434512,-0.731648,-0.628550,-0.152875,-0.480922,-0.163115,-0.461262,-0.373432,-0.395374,-0.359052,-0.377192,-0.342359,-0.425713,-0.179768,-0.324434,-0.278955,-0.461182,-0.355347,-0.360749,-0.380037,-0.325436,-0.287577,-0.342493,-0.290467,-0.400614,-0.345743,-0.506227,-0.428750,-0.289874,-0.378902,-0.442135,-0.461307,-0.471087,-0.500609,-0.684984,-0.580315,-0.748616,-0.652060,-0.637561,-0.684185,-0.569641,-0.459971,-0.297426,-0.102030,-0.086297,0.132225,0.051016,0.202722,0.185719,0.130169,0.230719,0.180135,0.206774,0.314456,0.083621,0.239264,0.133400,0.205959,0.169962,0.112190,0.113386,0.062355,0.077102,0.078972,-0.074127,0.065742,-0.070829,0.037805,0.016026,-0.044820,0.018926,-0.030822,-0.047308,-0.039634,-0.143697,-0.004648,-0.133093,-0.030668,-0.035004,-0.074070,0.011332,-0.052869,-0.015481,0.006505,-0.069706,0.048616,-0.057314,0.062242,0.228672,0.215507,0.410002,0.498198,0.570075,0.703909,0.519538,0.553084,0.438420,0.445701,0.494198,0.552279,0.379453,0.134615,0.007413,0.032429,-0.122952,-0.016223,-0.173194,-0.122008,-0.128628,-0.174237,-0.147573,-0.193790,-0.216208,-0.102026,-0.321754,-0.534793,-1.052184,-1.071022,0.265832,2.813810,6.221732,6.601969,2.244130,-0.755649,-0.689110,-0.334879,-0.370722,-0.315325,-0.340967,-0.443933,-0.406641,-0.424862,-0.357952,-0.334774,-0.397794,-0.293747,-0.451193,-0.307768,-0.381389,-0.350932,-0.298337,-0.397280,-0.349201,-0.348810,-0.426797,-0.328121,-0.435947,-0.295119,-0.376523,-0.392055,-0.375513,-0.407955,-0.348955,-0.289522,-0.417781,-0.309196,-0.455468,-0.382653,-0.551634,-0.541336,-0.506152,-0.561921,-0.505221,-0.466680,-0.585476,-0.340484,-0.478781,-0.126335,-0.088885,0.112667,0.096059,0.192680,0.174764,0.317445,0.202044,0.414113,0.126966,0.429701,0.120995,0.423825,0.072931,0.478673,-0.316454,0.000000,0.000000,1.000000
5.314905,6.063855,0.255711,-0.690020,-0.581278,-0.262383,-0.384611,-0.360731,-0.391845,-0.319979,-0.372875,-0.211886,-0.438753,-0.220475,-0.433754,-0.249036,-0.283013,-0.270799,-0.306407,-0.364668,-0.334364,-0.233232,-0.295786,-0.201696,-0.381279,-0.318159,-0.355375,-0.339969,-0.263305,-0.289258,-0.266543,-0.219796,-0.262257,-0.144354,-0.362317,-0.253000,-0.268240,-0.278934,-0.260664,-0.322437,-0.316973,-0.346366,-0.461269,-0.296651,-0.448055,-0.289760,-0.348891,-0.282977,-0.080133,-0.066732,0.071629,0.065881,0.026862,0.296874,0.120954,0.247246,0.207565,0.160119,0.188417,0.059468,0.102957,0.133068,0.116332,0.244406,0.029441,0.177073,0.100351,0.091912,0.076986,-0.004534,0.019352,0.019993,-0.062685,0.050340,-0.104919,0.027202,-0.103863,-0.088044,-0.056501,-0.122596,-0.003178,-0.005795,-0.026338,-0.029600,-0.170736,-0.024398,-0.020760,0.013863,-0.023243,-0.104867,-0.008057,0.000364,0.201888,0.354258,0.276623,0.535053,0.615665,0.687116,0.644689,0.547122,0.535848,0.368228,0.554500,0.417127,-0.006646,0.042746,-0.099681,-0.069337,-0.094717,-0.241876,-0.131433,-0.134928,-0.136822,-0.212957,-0.217720,-0.129227,-0.196488,-0.431791,-0.867732,-1.360536,-0.631433,1.726655,5.374973,7.252577,2.898252,-0.780116,-0.778071,-0.391240,-0.347148,-0.385209,-0.364425,-0.432322,-0.406546,-0.395890,-0.515509,-0.384974,-0.489181,-0.323485,-0.384858,-0.388569,-0.376380,-0.407533,-0.341012,-0.478212,-0.480218,-0.327950,-0.376163,-0.302449,-0.406878,-0.523741,-0.384722,-0.389024,-0.378653,-0.355580,-0.505836,-0.379113,-0.488143,-0.373432,-0.539559,-0.593050,-0.623338,-0.738271,-0.696565,-0.599176,-0.731018,-0.446637,-0.498207,-0.157158,-0.224700,0.000622,0.064595,0.147339,0.158725,0.330333,0.184733,0.372426,0.175242,0.429278,0.170194,0.383508,0.218174,0.365391,0.115431,0.500923,-0.388378,0.000000,0.000000,1.000000
4.905604,4.364144,-0.799767,-0.745324,-0.729508,-0.296577,-0.617280,-0.361122,-0.613405,-0.447389,-0.554320,-0.539009,-0.578252,-0.503242,-0.547914,-0.386350,-0.578490,-0.407579,-0.577042,-0.402081,-0.578637,-0.569760,-0.503544,-0.427465,-0.478503,-0.413899,-0.655731,-0.501600,-0.502729,-0.484070,-0.460872,-0.561621,-0.540218,-0.529732,-0.546926,-0.527951,-0.727254,-0.661019,-0.812218,-0.812120,-0.701391,-0.793766,-0.656106,-0.564787,-0.428532,-0.258723,-0.275618,-0.024914,-0.056858,0.039330,0.109862,0.124764,0.125780,0.149227,0.130583,0.208517,0.059691,0.238103,0.080094,0.148963,0.124179,0.008953,0.134144,0.100969,0.028659,0.138380,-0.039608,0.053460,-0.035494,-0.012272,-0.021240,-0.095420,0.021292,0.049697,0.054475,0.103634,-0.045515,0.064605,-0.073948,-0.049451,-0.016988,-0.044094,0.056681,-0.006298,0.048990,0.113532,0.049832,0.298419,0.285065,0.418733,0.523349,0.627366,0.728954,0.673171,0.644627,0.693202,0.564231,0.632194,0.661981,0.570333,0.256476,0.096352,0.015756,-0.012278,0.006457,0.053105,-0.106141,0.077338,-0.084602,-0.062240,-0.183012,-0.580200,-1.044072,-1.171289,0.381353,3.156103,6.440388,6.809626,1.905857,-0.958433,-0.993749,-0.909309,-0.303709,-0.374957,-0.346534,-0.297649,-0.390710,-0.252242,-0.305464,-0.242153,-0.226364,-0.310407,-0.254792,-0.324373,-0.333607,-0.256893,-0.383736,-0.264644,-0.317634,-0.221418,-0.174781,-0.246685,-0.177026,-0.286530,-0.270369,-0.199191,-0.374235,-0.185683,-0.291001,-0.240233,-0.278448,-0.312639,-0.257247,-0.312867,-0.340026,-0.322018,-0.442204,-0.359455,-0.456172,-0.311052,-0.262050,-0.066488,0.081659,0.202818,0.164859,0.294284,0.227128,0.433378,0.251368,0.441990,0.303065,0.451612,0.326059,0.403834,0.169520,0.492496,-0.019720,0.597745,-0.318124,0.000000,0.000000,0.000000,0.000000,0.000000,0.000000,0.000000,0.000000,1.000000
5.264557,4.830709,-0.789991,-0.927892,-1.355006,-0.526384,-0.539309,-0.450162,-0.499320,-0.443509,-0.515847,-0.340760,-0.492570,-0.280832,-0.486948,-0.366579,-0.463160,-0.461162,-0.432612,-0.452986,-0.492021,-0.383129,-0.461237,-0.255159,-0.414223,-0.300124,-0.400180,-0.427987,-0.339779,-0.461990,-0.411144,-0.346010,-0.449492,-0.346861,-0.496076,-0.372619,-0.454979,-0.461917,-0.470710,-0.540656,-0.541590,-0.547681,-0.530873,-0.378303,-0.297657,-0.052011,0.023576,0.063475,0.110077,0.132052,0.232070,0.204267,0.213262,0.271112,0.216508,0.304632,0.183928,0.159116,0.206468,0.087221,0.122436,0.137846,0.069326,0.134991,0.041426,0.125239,0.021426,-0.018662,0.044985,-0.081591,0.031876,0.004202,0.021140,0.096424,0.010465,0.027097,-0.040039,-0.031256,0.010970,-0.051757,-0.002444,-0.010178,0.025228,0.104396,-0.025410,0.051549,0.022675,0.045408,0.258112,0.314970,0.421233,0.470709,0.645997,0.770161,0.626165,0.640860,0.488254,0.554130,0.592361,0.337079,0.647867,0.662030,0.346795,0.170414,-0.017996,0.019226,-0.072997,-0.079834,-0.184486,-0.271615,-0.156265,-0.248176,-0.195511,-0.267131,-0.660496,-0.954096,-1.339236,-0.210367,2.210350,5.515580,7.296246,3.291681,-0.785150,-0.635753,-0.366150,-0.295851,-0.415968,-0.361726,-0.378951,-0.365691,-0.272344,-0.415804,-0.346253,-0.373562,-0.387738,-0.332283,-0.459891,-0.393129,-0.318460,-0.365611,-0.279442,-0.352102,-0.270932,-0.347391,-0.332231,-0.323003,-0.404208,-0.343063,-0.307562,-0.403341,-0.234367,-0.353209,-0.246124,-0.364981,-0.293957,-0.332682,-0.408361,-0.399478,-0.397983,-0.515862,-0.331926,-0.403559,-0.264875,-0.385121,-0.231373,-0.212975,-0.164833,-0.054485,0.013890,0.006458,0.240016,0.024679,0.260374,0.111288,0.352397,0.174153,0.315157,0.027408,0.350053,-0.153023,0.523862,-0.570347,0.000000,0.000000,0.000000,0.000000,0.000000,1.000000
5.603148,5.425247,-0.727762,-0.470113,-0.516168,-0.067936,-0.468063,-0.202331,-0.400666,-0.233971,-0.282310,-0.252529,-0.380379,-0.216887,-0.408344,-0.196993,-0.436449,-0.311595,-0.295466,-0.258251,-0.263801,-0.230323,-0.263673,-0.210463,-0.328835,-0.199466,-0.371437,-0.267859,-0.256122,-0.313088,-0.219068,-0.227121,-0.237838,-0.224633,-0.299732,-0.192924,-0.382304,-0.307112,-0.354352,-0.422525,-0.339758,-0.285527,-0.267644,-0.243158,-0.264045,-0.069735,-0.166457,0.053981,0.058966,0.113383,0.276074,0.205594,0.253662,0.310556,0.333149,0.410010,0.309173,0.276770,0.280982,0.190611,0.261570,0.178774,0.177960,0.166443,0.137396,0.268442,0.171632,0.199617,0.136082,0.113263,0.115527,0.045221,0.074478,0.084264,-0.008522,0.116668,-0.040022,0.029215,0.018329,0.028157,0.111471,0.007466,0.052561,0.114551,-0.034865,0.090329,-0.006895,0.100870,0.063000,0.095540,0.412338,0.549657,0.567114,0.562447,0.646300,0.764302,0.625687,0.651371,0.642370,0.625633,0.588800,0.456599,0.826056,0.679586,0.320422,0.207712,-0.072954,0.060652,-0.086227,-0.094795,-0.086186,-0.176927,-0.031384,-0.113500,-0.209416,-0.355982,-0.946065,-1.358366,-1.163401,0.880313,4.319323,6.986255,4.385520,-0.260129,-0.839477,-0.320017,-0.519869,-0.367058,-0.545614,-0.502756,-0.425933,-0.577166,-0.513735,-0.488120,-0.509448,-0.373567,-0.597277,-0.379245,-0.561304,-0.440100,-0.490007,-0.497150,-0.488268,-0.518507,-0.547445,-0.433511,-0.542692,-0.455805,-0.531680,-0.348340,-0.463406,-0.495714,-0.415930,-0.505112,-0.540482,-0.474552,-0.738962,-0.480218,-0.700367,-0.558169,-0.598715,-0.668145,-0.653147,-0.622940,-0.617031,-0.442344,-0.504252,-0.189495,-0.265611,-0.103660,-0.164925,0.015005,-0.073133,0.077279,-0.065087,0.100198,-0.263151,0.134576,-0.319663,0.071324,-0.482053,0.141922,-0.757691,0.000000,0.000000,0.000000,0.000000,1.000000
4.951389,6.167013,0.560861,-0.492505,-0.206516,-0.079638,-0.211947,-0.101700,-0.336770,-0.051064,-0.312486,-0.203955,-0.219702,-0.206691,-0.113931,-0.236617,-0.176561,-0.169460,-0.244244,-0.117612,-0.260827,-0.152714,-0.245839,-0.233540,-0.185778,-0.196700,-0.214363,-0.195291,-0.144081,-0.079373,-0.257091,-0.106724,-0.195842,-0.250776,-0.173399,-0.382770,-0.278115,-0.292216,-0.372668,-0.216329,-0.406158,-0.329944,-0.355462,-0.319906,-0.204265,-0.192171,-0.019121,0.084788,0.089391,0.171802,0.203516,0.270093,0.277728,0.283481,0.314859,0.149706,0.237960,0.194092,0.111478,0.134056,-0.002285,0.179443,0.162151,0.091581,0.089097,0.001936,0.110634,0.064731,-0.046058,0.042872,-0.086391,-0.018885,-0.006727,0.010155,-0.004745,-0.061377,0.037798,-0.046209,-0.051852,0.055948,-0.019206,0.030981,-0.109575,-0.140525,-0.071015,-0.054600,0.110330,0.052423,0.080622,0.170993,0.193989,0.358508,0.348547,0.448340,0.591285,0.488339,0.503040,0.458893,0.481121,0.413757,0.537845,0.432228,0.013428,-0.047188,-0.142766,-0.303815,-0.149904,-0.211086,-0.269737,-0.185283,-0.325986,-0.145365,-0.310014,-0.286018,-0.614461,-1.056949,-1.383614,-0.740594,1.540440,4.950898,7.045768,3.881735,-0.437711,-0.895752,-0.547110,-0.559802,-0.427388,-0.507258,-0.463117,-0.451018,-0.452444,-0.367038,-0.458570,-0.413242,-0.303334,-0.415390,-0.373512,-0.594628,-0.519674,-0.494905,-0.477011,-0.411812,-0.411877,-0.444280,-0.439238,-0.531777,-0.436111,-0.583645,-0.485674,-0.500554,-0.529528,-0.452091,-0.523283,-0.510933,-0.452806,-0.637608,-0.503501,-0.784976,-0.694151,-0.802541,-0.800750,-0.795957,-0.711144,-0.576865,-0.418842,-0.429916,-0.151823,-0.186158,0.050503,0.046303,0.157499,0.154549,0.213659,0.208536,0.361978,0.116133,0.357953,0.007615,0.350097,-0.088269,0.304010,-0.420800,0.000000,0.000000,0.000000,0.000000,0.000000,1.000000
4.774051,5.624664,0.205513,-0.880332,-0.775975,-0.511951,-0.609390,-0.445513,-0.625327,-0.426001,-0.588061,-0.385297,-0.528792,-0.472453,-0.406335,-0.417205,-0.467540,-0.546730,-0.659441,-0.498054,-0.588762,-0.447888,-0.494751,-0.470601,-0.513334,-0.548691,-0.537219,-0.564523,-0.617527,-0.494045,-0.628383,-0.489583,-0.576649,-0.569859,-0.510912,-0.646560,-0.595846,-0.731421,-0.814235,-0.762203,-0.900542,-0.795464,-0.824130,-0.628727,-0.529591,-0.468298,-0.311439,-0.204303,-0.131129,0.032427,-0.009036,0.132967,0.062500,0.166628,0.207073,0.129618,0.158037,0.083469,0.075261,0.090483,-0.095066,0.046892,0.008993,0.069173,0.112708,-0.007406,0.075388,-0.053294,-0.055400,0.014441,-0.084943,-0.034992,-0.115598,-0.057755,-0.093297,-0.149670,-0.084519,-0.126677,-0.079528,-0.046675,-0.150856,0.024605,-0.071962,-0.007072,-0.038304,-0.069009,-0.084283,-0.119477,-0.039189,-0.004254,-0.012671,0.244522,0.333512,0.424421,0.413711,0.494162,0.655204,0.570158,0.546318,0.469330,0.426473,0.534874,0.413864,0.698752,0.443506,0.215411,0.124084,-0.131390,-0.127701,-0.052209,-0.178906,-0.057582,-0.166492,-0.051552,-0.127454,-0.077265,-0.074969,-0.145317,-0.224954,-0.716217,-0.957975,-1.246254,-0.493378,1.920299,5.072715,7.327490,4.229751,-0.401994,-0.533040,-0.175814,-0.288300,-0.216686,-0.353207,-0.239348,-0.263918,-0.274324,-0.185616,-0.310810,-0.214475,-0.236195,-0.247640,-0.156525,-0.344268,-0.191864,-0.320814,-0.261244,-0.233948,-0.318474,-0.256715,-0.202920,-0.285266,-0.083652,-0.250912,-0.111154,-0.287047,-0.207531,-0.239847,-0.272599,-0.264099,-0.285382,-0.291647,-0.233471,-0.389036,-0.291048,-0.356851,-0.254066,-0.282483,-0.270446,-0.226143,-0.119217,-0.042607,0.169034,0.116047,0.397248,0.236821,0.450497,0.419295,0.514320,0.420120,0.462338,0.330095,0.554266,0.257269,0.603532,0.173917,0.706016,-0.030058,1.000000
5.150320,5.709511,-0.383269,-0.756402,-0.587565,-0.414137,-0.589822,-0.488510,-0.631004,-0.407782,-0.638193,-0.369595,-0.611505,-0.454494,-0.513631,-0.492551,-0.442447,-0.536109,-0.533107,-0.486883,-0.608756,-0.433436,-0.599287,-0.521760,-0.474131,-0.527624,-0.407141,-0.428799,-0.451744,-0.431969,-0.566407,-0.413765,-0.583132,-0.480427,-0.570910,-0.532632,-0.521102,-0.573358,-0.628269,-0.551706,-0.601880,-0.476983,-0.581742,-0.478314,-0.439035,-0.326359,-0.162055,-0.110117,0.019994,0.103188,0.047155,0.258968,0.178558,0.267942,0.166802,0.155724,0.196407,0.177417,0.147566,0.211283,0.082409,0.283517,0.122713,0.235036,0.203761,0.083260,0.133989,0.050129,0.087891,0.113626,-0.009223,0.129678,0.010524,0.064984,0.013239,-0.071301,0.008618,-0.068795,-0.065023,-0.029812,-0.067662,0.064588,-0.052045,0.047382,0.098691,0.049126,0.074672,0.027121,0.025524,0.033957,-0.000634,0.318992,0.307261,0.494080,0.420544,0.331921,0.545005,0.535788,0.610609,0.643160,0.490427,0.581476,0.470953,0.521868,0.711012,0.479297,0.257707,0.040347,-0.036039,-0.053426,-0.212559,-0.081091,-0.189320,-0.154245,-0.201753,-0.179687,-0.127234,-0.168806,-0.545808,-0.862283,-1.428579,-1.175110,0.208526,2.838158,6.204232,6.608581,2.412444,-0.887229,-0.523730,-0.320249,-0.366119,-0.204296,-0.406628,-0.312260,-0.295594,-0.349974,-0.287028,-0.410523,-0.324617,-0.322171,-0.379540,-0.275474,-0.368953,-0.246802,-0.335249,-0.290960,-0.236879,-0.314351,-0.336892,-0.350361,-0.405935,-0.251271,-0.406440,-0.239985,-0.240831,-0.255651,-0.248512,-0.322424,-0.315067,-0.293050,-0.413510,-0.325177,-0.452065,-0.375434,-0.390689,-0.400407,-0.316104,-0.354444,-0.284517,-0.182937,-0.254568,-0.001701,-0.063026,0.169491,0.115935,0.192142,0.238905,0.285642,0.220919,0.374504,0.093650,0.418276,0.098725,0.445832,-0.033676,0.447853,-0.395948,1.000000
5.303012,5.602433,-0.200557,-0.728714,-0.468529,-0.295433,-0.368294,-0.224589,-0.510802,-0.194466,-0.448676,-0.249794,-0.431027,-0.365731,-0.345299,-0.370308,-0.358541,-0.316821,-0.364322,-0.251360,-0.400757,-0.217148,-0.323343,-0.334480,-0.368428,-0.412928,-0.344061,-0.324769,-0.399221,-0.178937,-0.321759,-0.218764,-0.335732,-0.331205,-0.317573,-0.376127,-0.407749,-0.381729,-0.489878,-0.347548,-0.473220,-0.340190,-0.367384,-0.352266,-0.212354,-0.261045,-0.121680,-0.017834,0.035645,0.202971,0.115117,0.261449,0.277520,0.247563,0.350964,0.211763,0.273801,0.293906,0.249322,0.279922,0.109015,0.197598,0.149595,0.121531,0.167628,0.018722,0.143772,0.096466,0.069144,0.178050,0.048913,0.025301,0.015847,-0.021370,0.044932,-0.056688,0.020919,0.040850,-0.002943,0.067691,-0.053285,0.028855,0.009974,-0.099137,0.005860,-0.066810,0.044661,0.059213,0.029199,0.109278,0.098514,0.427773,0.354917,0.356947,0.679825,0.633396,0.754330,0.693426,0.589269,0.638192,0.447049,0.483207,0.676795,0.807690,0.732414,0.235653,0.221498,-0.003421,-0.057272,-0.018638,-0.088926,-0.155469,-0.217900,-0.246748,-0.146811,-0.251333,-0.132564,-0.468058,-0.718077,-1.149569,-1.470516,-0.062371,2.411945,5.889118,6.777216,2.694755,-0.778701,-0.859185,-0.580381,-0.458416,-0.523318,-0.289246,-0.353865,-0.464071,-0.360004,-0.518975,-0.420013,-0.437694,-0.457621,-0.404346,-0.519473,-0.439926,-0.455848,-0.452002,-0.337269,-0.467120,-0.450331,-0.557109,-0.518090,-0.456572,-0.517631,-0.445038,-0.425334,-0.451136,-0.338162,-0.484592,-0.294374,-0.351330,-0.344868,-0.340871,-0.462498,-0.462245,-0.508158,-0.660402,-0.603257,-0.633068,-0.497926,-0.656055,-0.490613,-0.510763,-0.403028,-0.291821,-0.088483,-0.110865,0.121904,-0.018783,0.217422,0.083894,0.213650,0.091969,0.178722,0.053608,0.251332,-0.195699,0.407667,-0.626637,0.000000,1.000000
5.069017,5.393789,-0.039760,-0.689231,-0.719437,-0.241997,-0.510592,-0.206404,-0.235787,-0.294690,-0.330375,-0.288468,-0.434206,-0.236862,-0.419972,-0.250439,-0.408307,-0.348772,-0.343975,-0.352919,-0.276993,-0.277539,-0.382253,-0.365751,-0.481592,-0.327773,-0.407942,-0.367685,-0.312223,-0.350489,-0.263682,-0.311468,-0.304530,-0.163030,-0.291814,-0.189624,-0.322750,-0.358802,-0.358368,-0.502528,-0.521295,-0.520839,-0.435372,-0.471310,-0.486417,-0.359609,-0.374291,-0.230384,-0.062030,-0.000278,0.126508,0.162448,0.184203,0.293944,0.212670,0.292215,0.211107,0.221304,0.278570,0.102247,0.200548,0.091941,0.141187,0.174028,0.108318,0.135838,0.139052,0.078766,0.114298,-0.004426,0.085845,0.011188,-0.062897,0.036223,-0.071560,0.024958,0.014701,-0.017182,-0.048506,-0.109830,0.139116,0.090267,0.021826,-0.020230,-0.088736,0.012899,-0.012074,0.025872,0.081639,-0.038006,0.158497,0.267173,0.498208,0.439561,0.500369,0.686925,0.645841,0.636275,0.607939,0.445961,0.453646,0.447618,0.499755,0.267440,-0.026844,0.024044,-0.032743,-0.044138,-0.099324,-0.238408,-0.113184,-0.211538,-0.189059,-0.125844,-0.182772,-0.142449,-0.570270,-0.932980,-1.356595,-0.356589,2.249208,5.524983,7.237640,3.408514,-0.582931,-0.722755,-0.383560,-0.306638,-0.205442,-0.374439,-0.303479,-0.372042,-0.347521,-0.302082,-0.403529,-0.403090,-0.412402,-0.429537,-0.416273,-0.487836,-0.338257,-0.409042,-0.367145,-0.410429,-0.436905,-0.409217,-0.498527,-0.415463,-0.361897,-0.494265,-0.373297,-0.454814,-0.293914,-0.395561,-0.449869,-0.452010,-0.574101,-0.676751,-0.646883,-0.794124,-0.596699,-0.725564,-0.610536,-0.699626,-0.644310,-0.581646,-0.382862,-0.282155,-0.054153,-0.011697,0.237443,0.078564,0.331004,0.186482,0.271539,0.188692,0.348354,0.120447,0.343278,0.014731,0.461642,-0.088785,0.449790,-0.396998,0.000000,0.000000,0.000000,1.000000
4.280840,5.132560,0.239192,-0.673834,-0.566690,-0.259126,-0.322917,-0.244230,-0.420421,-0.267540,-0.442132,-0.254778,-0.412812,-0.366983,-0.430059,-0.392996,-0.428565,-0.435535,-0.417165,-0.338843,-0.424047,-0.344504,-0.463179,-0.374221,-0.474976,-0.437080,-0.360965,-0.443540,-0.416340,-0.405680,-0.375305,-0.317624,-0.464212,-0.409386,-0.514911,-0.609459,-0.603640,-0.698319,-0.620204,-0.611837,-0.631824,-0.589067,-0.653740,-0.542876,-0.450871,-0.302404,-0.169518,-0.067522,0.080629,0.061993,0.129039,0.180580,0.100073,0.157030,0.165550,0.129804,0.136063,0.074738,0.157281,0.108638,0.008273,0.119803,-0.011059,0.080336,0.045521,0.024689,0.099538,-0.054340,0.003697,-0.064297,-0.056804,0.008656,-0.048029,0.022859,-0.034088,-0.056049,-0.056914,-0.105689,-0.006922,-0.068835,-0.082278,-0.026614,-0.077616,0.039507,-0.046254,-0.015378,0.014883,-0.090967,0.215730,0.309096,0.372823,0.480764,0.544366,0.558720,0.471714,0.450376,0.469852,0.324137,0.439220,0.552588,0.320503,0.138655,-0.041968,-0.042061,-0.166531,-0.138365,-0.124497,-0.210295,-0.055894,-0.161899,-0.074828,-0.256290,-0.714908,-1.044925,-1.079798,0.549190,3.205075,6.182616,6.751158,3.800513,1.064322,-0.295327,-1.171937,-0.707847,-0.331572,-0.352833,-0.352542,-0.462841,-0.361200,-0.457111,-0.324815,-0.333175,-0.317356,-0.305513,-0.413652,-0.366466,-0.391886,-0.402640,-0.287478,-0.428178,-0.302947,-0.341554,-0.349287,-0.299759,-0.308924,-0.251092,-0.262940,-0.386327,-0.261284,-0.400690,-0.295833,-0.333161,-0.342008,-0.371491,-0.417160,-0.390187,-0.388467,-0.436267,-0.367981,-0.494027,-0.345399,-0.360989,-0.217907,-0.098626,0.021544,0.052852,0.155155,0.065822,0.275425,0.051559,0.225712,0.084311,0.218602,0.103618,0.242545,0.085534,0.282158,-0.061918,0.413562,-0.464728,0.000000,0.000000,0.000000,0.000000,0.000000,0.000000,0.000000,1.000000
4.810071,4.989364,1.153670,0.142195,-1.239996,-0.795031,-0.468652,-0.314808,-0.423108,-0.430738,-0.454755,-0.418472,-0.444523,-0.298874,-0.408150,-0.281997,-0.452829,-0.390940,-0.418195,-0.436769,-0.344764,-0.402721,-0.405184,-0.313894,-0.418254,-0.317665,-0.353481,-0.297878,-0.269545,-0.393525,-0.332909,-0.365196,-0.397280,-0.308914,-0.400360,-0.361597,-0.449808,-0.426627,-0.407556,-0.461550,-0.407847,-0.479311,-0.450410,-0.365704,-0.335171,-0.169163,-0.057002,-0.006714,0.100935,0.039381,0.165743,0.121657,0.082930,0.142164,0.088830,0.144060,0.122680,0.131467,0.152912,0.065698,0.125804,0.028884,0.023034,0.024705,-0.031575,0.031118,0.013594,-0.024183,0.012749,-0.077830,0.002761,-0.119546,-0.092345,-0.104110,-0.145948,-0.070974,-0.123928,-0.077315,-0.022990,-0.112738,-0.081196,-0.121537,-0.092532,-0.051841,-0.078849,-0.007311,0.025307,0.111424,0.345353,0.211129,0.366768,0.414522,0.441236,0.467977,0.454085,0.389970,0.396092,0.326435,0.510469,0.433161,0.204353,-0.044187,-0.087093,-0.120368,-0.153199,-0.123080,-0.126588,-0.209834,-0.147654,-0.263850,-0.134840,-0.532374,-0.856124,-1.228595,-0.640778,1.406355,4.383361,6.405031,6.129732,2.455116,-0.668815,-0.747389,-0.428884,-0.381115,-0.445809,-0.356793,-0.372542,-0.375510,-0.313964,-0.456405,-0.353334,-0.395679,-0.408602,-0.337109,-0.402234,-0.341426,-0.343249,-0.336593,-0.227274,-0.334547,-0.255188,-0.320049,-0.313447,-0.270406,-0.303875,-0.272259,-0.309922,-0.332143,-0.255899,-0.370895,-0.216743,-0.370732,-0.295299,-0.304736,-0.404751,-0.337489,-0.366760,-0.405224,-0.294874,-0.438886,-0.264693,-0.317540,-0.197891,-0.165763,-0.066783,-0.004901,0.085911,-0.001929,0.170536,-0.028141,0.179403,-0.029108,0.139140,-0.008368,0.181386,-0.037036,0.216155,-0.169669,0.342238,-0.667193,0.000000,0.000000,0.000000,0.000000,0.000000,0.000000,0.000000,1.000000
5.701401,6.100072,0.395400,-0.645582,-0.603010,-0.101544,-0.411484,-0.179145,-0.286418,-0.190307,-0.242541,-0.192642,-0.359572,-0.138068,-0.366799,-0.156249,-0.286020,-0.203491,-0.216333,-0.192362,-0.136044,-0.098394,-0.194049,-0.076556,-0.237970,-0.086604,-0.174031,-0.113828,-0.146765,-0.188695,-0.129381,-0.173874,-0.156586,-0.100514,-0.260746,-0.072739,-0.276677,-0.212180,-0.205243,-0.275840,-0.183918,-0.238837,-0.229025,-0.102615,-0.140447,0.027922,0.039167,0.174939,0.261762,0.222784,0.319109,0.265680,0.276644,0.305958,0.219712,0.306684,0.268403,0.303616,0.278740,0.236815,0.264248,0.111851,0.092006,0.142578,0.040315,0.093263,0.011088,0.000705,0.055835,-0.052966,-0.041197,-0.076422,-0.100460,-0.052441,-0.129547,0.077389,-0.052747,0.008732,-0.012466,-0.088225,-0.001187,-0.082844,-0.103865,-0.052166,-0.105000,0.065630,0.029831,0.008980,0.072160,0.257874,0.406161,0.317342,0.426017,0.570753,0.509904,0.559080,0.402998,0.583052,0.437746,0.541793,0.485377,0.101800,-0.085972,-0.164347,-0.245007,-0.083596,-0.279105,-0.067453,-0.107105,-0.127272,-0.103419,-0.170762,-0.262842,-0.284635,-0.439870,-0.641836,-1.163595,-1.393903,-0.259346,1.972104,5.438452,6.491595,2.693162,-0.750709,-0.886761,-0.478992,-0.548723,-0.456855,-0.367725,-0.433436,-0.458670,-0.490564,-0.406324,-0.400946,-0.492151,-0.410264,-0.508747,-0.480320,-0.465634,-0.470455,-0.515655,-0.554633,-0.442566,-0.439787,-0.497399,-0.371078,-0.496282,-0.383539,-0.465400,-0.600225,-0.449408,-0.428808,-0.431784,-0.400095,-0.494016,-0.376410,-0.607016,-0.487222,-0.654406,-0.683977,-0.658746,-0.690608,-0.744621,-0.743803,-0.824450,-0.683238,-0.792238,-0.495261,-0.308778,-0.128464,-0.071043,-0.047839,-0.063390,0.154595,-0.021641,0.279030,0.076211,0.319681,-0.005109,0.328666,-0.015633,0.549642,-0.285883,0.000000,0.000000,0.000000,0.000000,1.000000
5.002508,4.880707,-0.722678,-0.875488,-0.802257,-0.484060,-0.610370,-0.542285,-0.611222,-0.502939,-0.586845,-0.408696,-0.601832,-0.414281,-0.624959,-0.520566,-0.554176,-0.586251,-0.537876,-0.565855,-0.569424,-0.444424,-0.554490,-0.415378,-0.526910,-0.442364,-0.542131,-0.509392,-0.533684,-0.546491,-0.534486,-0.488421,-0.604581,-0.436976,-0.577333,-0.549230,-0.617058,-0.669582,-0.743364,-0.800250,-0.801924,-0.740633,-0.781783,-0.612312,-0.686674,-0.400774,-0.324268,-0.239736,-0.034783,0.016824,0.090345,0.152661,0.119416,0.265126,0.157340,0.234432,0.210292,0.163730,0.226055,0.114680,0.115123,0.142405,0.046025,0.169311,0.022089,0.131292,0.112688,0.063030,0.157035,0.044036,0.075646,0.018995,0.040831,0.073762,-0.047934,0.067223,0.099262,0.033764,0.152154,-0.002916,0.079131,0.020386,-0.067831,0.029392,-0.078256,0.008093,0.028895,-0.021029,-0.001875,-0.038913,0.107884,0.120542,0.093678,0.322701,0.367850,0.404252,0.427827,0.524295,0.728415,0.597825,0.592460,0.550368,0.536021,0.546424,0.767565,0.711519,0.377419,0.200114,0.103088,-0.062319,-0.033812,-0.034436,-0.112482,0.006900,-0.132268,-0.049138,-0.123185,-0.151133,-0.230921,-0.695452,-1.059138,-1.383741,-0.286235,2.203290,5.636052,7.505471,3.318855,-0.779372,-0.469316,-0.280014,-0.243962,-0.252686,-0.281596,-0.213317,-0.405467,-0.302733,-0.332896,-0.308288,-0.304036,-0.418389,-0.303763,-0.337231,-0.374188,-0.303716,-0.383130,-0.308442,-0.400079,-0.229099,-0.230929,-0.253012,-0.284117,-0.306050,-0.343479,-0.192637,-0.299271,-0.182822,-0.249319,-0.229002,-0.229892,-0.240462,-0.158252,-0.189715,-0.291584,-0.206625,-0.426824,-0.229262,-0.328822,-0.266859,-0.212753,-0.243985,-0.116878,0.038602,0.043048,0.241609,0.105536,0.354757,0.234008,0.362582,0.269692,0.296060,0.234580,0.411255,0.183832,0.542632,0.049353,0.683879,-0.328148,1.000000
4.488194,4.900842,-0.421231,-0.595428,-0.504914,-0.273050,-0.426056,-0.322688,-0.390394,-0.376447,-0.513854,-0.340034,-0.492374,-0.327751,-0.530992,-0.407892,-0.432794,-0.447735,-0.436609,-0.431207,-0.451285,-0.436942,-0.437321,-0.288054,-0.387915,-0.350208,-0.415639,-0.424418,-0.370031,-0.336411,-0.378587,-0.285728,-0.394332,-0.298435,-0.382103,-0.289913,-0.284553,-0.370871,-0.341352,-0.424950,-0.451914,-0.331701,-0.457906,-0.293922,-0.373131,-0.293572,-0.155805,-0.114978,0.001362,0.006462,0.043612,0.149812,0.078309,0.170889,0.075138,0.086096,0.153121,0.095761,0.188254,0.119092,0.132025,0.139150,0.025990,0.083434,-0.012646,0.016951,0.028082,-0.054342,-0.001391,-0.042294,-0.002617,0.067481,-0.043694,0.023264,-0.118929,-0.051550,-0.090701,-0.124802,-0.084405,-0.122940,-0.119906,-0.022717,-0.112532,0.032855,-0.047908,-0.047190,0.004765,-0.041739,-0.008546,-0.067027,-0.099290,0.011134,-0.023819,0.205096,0.246173,0.336132,0.439974,0.507631,0.576821,0.501282,0.403955,0.488642,0.287267,0.569670,0.452059,0.233768,0.138477,-0.108636,-0.056525,-0.123377,-0.132161,-0.059565,-0.215849,-0.102871,-0.245672,-0.178027,-0.192021,-0.254615,-0.514575,-0.858249,-1.150922,-0.239336,1.603654,4.520906,6.278209,6.361888,4.087059,0.647289,-0.900656,-0.704401,-0.390358,-0.270492,-0.334474,-0.267229,-0.336547,-0.314416,-0.341892,-0.415908,-0.345737,-0.410696,-0.395795,-0.288827,-0.395299,-0.305053,-0.378038,-0.309300,-0.316114,-0.376556,-0.291049,-0.376563,-0.388859,-0.285754,-0.383522,-0.213622,-0.371627,-0.182915,-0.298355,-0.281796,-0.252921,-0.357911,-0.382259,-0.307691,-0.425093,-0.320124,-0.470337,-0.422411,-0.499606,-0.480001,-0.335440,-0.299897,-0.257959,-0.059587,-0.192257,-0.024666,-0.135373,0.078582,-0.035562,0.073900,-0.019382,0.025855,-0.103278,0.133305,-0.168251,0.160202,-0.313359,0.207688,-0.685533,1.000000
5.263416,6.867185,2.340066,-0.069758,-0.879715,-0.173610,-0.177972,0.014487,-0.160828,0.016351,-0.193322,-0.011329,-0.244098,-0.106185,-0.187131,-0.184147,-0.118832,-0.096599,-0.165528,-0.070720,-0.179316,-0.018164,-0.183161,-0.075466,-0.109711,-0.193565,-0.083196,-0.130995,-0.059559,-0.053070,-0.083504,0.061598,-0.140215,0.030329,-0.114691,-0.153426,-0.116231,-0.143000,-0.168636,-0.145319,-0.286550,-0.197480,-0.349068,-0.143860,-0.090164,-0.063847,0.121497,0.115349,0.132879,0.185602,0.207264,0.329775,0.232582,0.334027,0.228953,0.215826,0.283086,0.243976,0.231093,0.216202,0.107485,0.167886,0.028417,0.109242,0.109830,0.020886,0.023603,0.033847,0.055349,0.083395,-0.001570,0.069756,-0.095609,-0.014376,-0.022964,-0.036377,0.004013,-0.064762,-0.057145,-0.021673,-0.087888,0.041775,-0.071774,-0.016148,-0.095888,-0.110582,-0.052342,-0.062393,0.107688,0.258562,0.211379,0.420635,0.402472,0.598869,0.514920,0.494130,0.405584,0.427099,0.385532,0.462508,0.414233,0.245847,-0.036277,-0.155256,-0.279849,-0.248987,-0.189064,-0.219007,-0.186690,-0.278637,-0.272975,-0.129110,-0.310299,-0.215265,-0.367375,-0.598141,-0.960781,-1.384457,-0.078663,2.392724,5.497144,5.859385,1.420587,-0.973984,-0.563983,-0.533289,-0.509560,-0.474161,-0.382923,-0.483886,-0.572900,-0.427887,-0.535889,-0.463368,-0.530207,-0.567889,-0.497319,-0.501029,-0.427266,-0.452476,-0.548950,-0.470248,-0.671803,-0.565569,-0.623846,-0.535373,-0.454410,-0.478777,-0.536045,-0.563576,-0.610729,-0.498140,-0.641693,-0.540534,-0.614446,-0.694817,-0.773288,-0.735976,-0.781197,-0.816660,-0.973267,-0.787460,-0.822900,-0.534760,-0.473616,-0.312924,-0.152319,-0.110134,-0.043390,0.114355,-0.081041,0.106203,-0.129775,0.083459,-0.096006,0.058093,-0.052033,0.061505,-0.136065,0.067114,-0.371681,0.225377,-0.786681,0.000000,0.000000,0.000000,0.000000,1.000000
5.077464,4.360226,-0.780949,-0.387731,-0.526957,-0.235196,-0.455151,-0.151880,-0.338778,-0.354158,-0.382766,-0.262915,-0.419789,-0.256494,-0.491345,-0.310076,-0.393068,-0.266053,-0.285749,-0.355665,-0.354392,-0.412992,-0.521552,-0.391459,-0.494746,-0.269543,-0.340221,-0.330987,-0.422397,-0.439963,-0.402861,-0.402570,-0.485084,-0.371417,-0.561043,-0.581572,-0.646846,-0.599259,-0.675182,-0.788583,-0.771291,-0.645558,-0.574369,-0.270876,-0.287581,0.012186,0.039411,0.107804,0.270870,0.196602,0.204978,0.199921,0.124386,0.248352,0.104615,0.263310,0.151866,0.186521,0.136436,0.042843,0.060239,0.050606,-0.038176,0.029383,-0.138121,0.039204,-0.081754,0.031593,0.059415,-0.043369,-0.024423,-0.067292,-0.083406,0.004629,-0.127796,-0.045192,-0.031373,0.037993,-0.012386,-0.092112,-0.022529,-0.033606,-0.130582,0.008292,-0.080089,0.231378,0.296989,0.394561,0.466809,0.522255,0.547408,0.429170,0.427941,0.551533,0.355373,0.498330,0.488707,0.274411,0.068185,-0.023658,-0.094468,-0.076258,-0.235944,-0.159369,-0.291138,-0.206069,-0.268158,-0.237507,-0.186654,-0.425884,-0.811740,-1.252930,-1.541847,-0.354713,0.750873,3.054220,6.132415,7.012359,2.705757,-0.885221,-0.539006,-0.335157,-0.298606,-0.271176,-0.398261,-0.316232,-0.374649,-0.358756,-0.376998,-0.443705,-0.320238,-0.354823,-0.354408,-0.271219,-0.420192,-0.293404,-0.386114,-0.227049,-0.300932,-0.318008,-0.271842,-0.336313,-0.347721,-0.236713,-0.331755,-0.199650,-0.296023,-0.267184,-0.327924,-0.385795,-0.417870,-0.462679,-0.518731,-0.425667,-0.639981,-0.453889,-0.590768,-0.446545,-0.427627,-0.340491,-0.118852,0.011924,0.051250,0.301481,0.218974,0.434569,0.293587,0.431603,0.298921,0.326881,0.277441,0.374623,0.180808,0.378235,0.039446,0.443982,-0.013410,0.587873,-0.292222,0.000000,0.000000,0.000000,0.000000,0.000000,0.000000,0.000000,0.000000,1.000000
5.137807,5.603564,-0.264966,-0.717944,-0.535362,-0.272261,-0.400912,-0.320828,-0.489558,-0.310331,-0.502311,-0.336304,-0.538636,-0.387783,-0.398514,-0.410829,-0.350489,-0.395686,-0.429627,-0.361360,-0.398992,-0.248161,-0.424699,-0.300772,-0.372164,-0.401253,-0.335410,-0.327709,-0.335807,-0.260195,-0.373014,-0.308415,-0.439849,-0.440451,-0.491754,-0.564548,-0.497100,-0.596237,-0.620304,-0.532596,-0.628834,-0.427199,-0.490335,-0.252814,-0.084975,-0.034971,0.148531,0.217865,0.268295,0.347739,0.276130,0.363660,0.221764,0.267911,0.282266,0.218376,0.240537,0.153457,0.170056,0.216281,0.151021,0.267559,0.151651,0.140685,0.119857,0.004975,0.103696,0.006718,0.015194,0.073002,-0.014095,0.024944,0.017447,0.102113,0.109131,0.027860,0.079370,-0.020886,0.000147,-0.017988,-0.054637,0.007995,-0.000866,-0.028373,0.026336,0.011094,0.159938,0.175963,0.436613,0.450754,0.412567,0.587334,0.611075,0.605194,0.623010,0.450403,0.564161,0.446416,0.756720,0.553361,0.251778,0.068918,-0.154863,-0.170066,-0.084734,-0.238547,-0.130499,-0.219347,-0.201592,-0.199644,-0.182820,-0.202442,-0.395484,-0.741279,-0.866777,-1.195401,-1.116186,0.396509,3.144347,6.397726,6.310626,1.792482,-0.750457,-0.324560,-0.335431,-0.360541,-0.315761,-0.470493,-0.441378,-0.387632,-0.422298,-0.429208,-0.499866,-0.441397,-0.323717,-0.442812,-0.330602,-0.454872,-0.411460,-0.461991,-0.479060,-0.413432,-0.395985,-0.471650,-0.408169,-0.467325,-0.348275,-0.451974,-0.386963,-0.375048,-0.465410,-0.449397,-0.448373,-0.434387,-0.343427,-0.485661,-0.418633,-0.576362,-0.485210,-0.528032,-0.510208,-0.441674,-0.369259,-0.227428,-0.032718,-0.080653,0.126363,0.001917,0.275121,0.072744,0.206408,0.146833,0.204063,0.048363,0.244895,-0.025090,0.256092,-0.103153,0.250906,-0.239546,0.324353,-0.613219,0.000000,0.000000,0.000000,0.000000,0.000000,1.000000
5.102050,4.848274,-0.354733,-0.294690,-0.326738,-0.174984,-0.324692,-0.217958,-0.475573,-0.238298,-0.379166,-0.284938,-0.417087,-0.380132,-0.288878,-0.278376,-0.329284,-0.258096,-0.400607,-0.295559,-0.433440,-0.334339,-0.319130,-0.340738,-0.365871,-0.337945,-0.339724,-0.273420,-0.384174,-0.240509,-0.359647,-0.368217,-0.356817,-0.373052,-0.275167,-0.332410,-0.368329,-0.397847,-0.477459,-0.385461,-0.462017,-0.382919,-0.313978,-0.241868,0.010285,0.000943,0.147374,0.135394,0.238170,0.295720,0.196823,0.292661,0.276715,0.196544,0.262569,0.189749,0.210863,0.182041,0.141469,0.140638,0.063567,0.087884,0.072062,-0.063271,0.077825,-0.044984,-0.000123,0.014129,-0.083458,-0.015171,-0.069704,-0.083661,-0.128137,-0.178223,-0.035255,-0.144502,-0.007190,0.012770,0.015924,0.078266,0.019084,0.004246,0.004899,-0.005023,0.136387,0.080509,0.347021,0.453011,0.465605,0.672084,0.591387,0.646807,0.622074,0.430665,0.621711,0.390423,0.664114,0.515471,0.178093,0.131401,-0.105033,-0.058289,-0.143340,-0.247718,-0.214171,-0.275097,-0.151801,-0.153535,-0.263223,-0.180422,-0.557519,-0.906502,-1.468387,-1.150082,0.217123,1.167395,3.774698,6.367356,6.433878,1.744822,-1.109383,-0.500320,-0.392067,-0.405976,-0.300214,-0.478124,-0.456070,-0.425986,-0.440066,-0.400660,-0.495953,-0.447109,-0.424660,-0.423433,-0.273414,-0.403145,-0.397212,-0.472049,-0.459219,-0.416177,-0.495294,-0.424945,-0.346351,-0.544962,-0.411544,-0.419458,-0.304159,-0.368075,-0.388579,-0.323900,-0.497854,-0.508215,-0.487375,-0.640493,-0.482807,-0.692241,-0.493686,-0.578751,-0.587425,-0.581146,-0.556935,-0.428235,-0.154039,-0.179122,0.065180,-0.095000,0.171417,0.056845,0.183519,0.150609,0.121632,-0.017633,0.287894,-0.003603,0.290084,-0.159079,0.293017,-0.184815,0.280670,-0.476800,0.000000,0.000000,0.000000,0.000000,0.000000,0.000000,0.000000,1.000000
5.137309,5.029010,-0.585672,-0.609636,-0.422613,-0.240135,-0.349779,-0.212775,-0.508738,-0.262013,-0.441556,-0.264951,-0.429195,-0.365673,-0.374941,-0.338202,-0.275457,-0.222421,-0.374091,-0.314034,-0.445350,-0.306890,-0.413013,-0.382537,-0.276882,-0.386555,-0.425383,-0.300438,-0.307573,-0.209498,-0.363356,-0.220933,-0.368946,-0.449253,-0.387854,-0.538303,-0.448800,-0.535619,-0.523590,-0.412893,-0.561491,-0.469832,-0.517692,-0.397084,-0.147429,-0.088801,0.069745,0.050186,0.133434,0.228930,0.162709,0.302616,0.172871,0.105547,0.268068,0.194560,0.238750,0.112392,0.131097,0.196056,-0.010554,0.189398,0.112243,0.143916,0.082933,-0.068459,-0.014094,-0.094623,-0.063754,-0.067459,-0.140257,-0.004891,-0.030168,-0.015260,0.000371,-0.134869,-0.094367,-0.100026,-0.123694,-0.082348,-0.153979,-0.055565,-0.103110,-0.085793,0.017120,-0.016707,0.134770,0.282377,0.335898,0.306029,0.359533,0.668493,0.675546,0.555172,0.546455,0.496373,0.533450,0.589965,0.395368,0.238671,-0.020413,-0.075959,-0.187495,-0.140513,-0.043102,-0.196945,-0.141646,-0.231092,-0.178562,-0.182134,-0.207369,-0.173466,-0.548321,-0.871447,-1.238723,-0.808164,1.380291,4.562911,7.433815,4.661109,-0.054797,-0.829298,-0.480361,-0.469388,-0.382396,-0.509573,-0.340740,-0.484553,-0.340448,-0.415226,-0.378885,-0.296060,-0.386486,-0.339475,-0.358385,-0.437600,-0.288488,-0.446460,-0.381640,-0.387822,-0.373253,-0.312386,-0.342308,-0.269219,-0.263384,-0.333338,-0.203571,-0.391819,-0.228419,-0.317965,-0.329214,-0.343945,-0.369003,-0.368025,-0.378125,-0.488685,-0.413601,-0.695620,-0.564518,-0.699672,-0.605545,-0.580316,-0.554771,-0.450602,-0.269647,-0.235222,0.008919,-0.001587,0.288026,0.219323,0.410488,0.344580,0.451742,0.417323,0.568241,0.334705,0.672779,0.139992,0.755212,-0.271774,0.000000,0.000000,0.000000,0.000000,0.000000,0.000000,0.000000,1.000000
5.364953,6.741011,0.489750,-0.691203,-0.495445,-0.201477,-0.462208,-0.330289,-0.479538,-0.443053,-0.453502,-0.347753,-0.480504,-0.312618,-0.442414,-0.226096,-0.368796,-0.298263,-0.280413,-0.313903,-0.297819,-0.301269,-0.359248,-0.308311,-0.383186,-0.280760,-0.378861,-0.332576,-0.344241,-0.403087,-0.319842,-0.368631,-0.357984,-0.322729,-0.453504,-0.293096,-0.388132,-0.323678,-0.374580,-0.387286,-0.332528,-0.453720,-0.381115,-0.311067,-0.282356,-0.059574,-0.092725,0.111015,0.105191,0.185297,0.245252,0.192665,0.275005,0.247811,0.187977,0.304712,0.161903,0.214950,0.196226,0.141492,0.193200,0.122149,0.067184,0.137508,0.033290,0.158429,0.038037,0.092767,0.083562,0.074075,0.079056,0.053735,0.092413,0.042546,-0.058441,0.039961,-0.112251,-0.038605,-0.003895,-0.041766,0.031587,-0.045358,0.071640,0.098422,0.043382,0.112663,0.001642,0.068094,0.062190,0.071160,0.121194,0.123928,0.362670,0.437421,0.461296,0.691801,0.659323,0.770217,0.637121,0.591133,0.685428,0.478389,0.742540,0.680851,0.360923,0.261855,-0.141532,0.000112,-0.066682,-0.079149,-0.091167,-0.117694,-0.057915,-0.137000,-0.196101,-0.085505,-0.176040,-0.507261,-0.977695,-1.442871,-0.785634,1.190148,4.618316,6.759753,3.349987,-0.709222,-0.794827,-0.334896,-0.494790,-0.413493,-0.375458,-0.456396,-0.477489,-0.481265,-0.502644,-0.409329,-0.465394,-0.311056,-0.484620,-0.382594,-0.412655,-0.464925,-0.390050,-0.465527,-0.488617,-0.376957,-0.476002,-0.330027,-0.426445,-0.401598,-0.424448,-0.382834,-0.333828,-0.453324,-0.470203,-0.403112,-0.512162,-0.461345,-0.578672,-0.532032,-0.545718,-0.683845,-0.643316,-0.624766,-0.647770,-0.618251,-0.590374,-0.276436,-0.327016,-0.023531,-0.037308,0.000250,0.038221,0.076204,0.019107,0.205170,-0.034779,0.161812,-0.056478,0.309819,-0.007681,0.138325,-0.103560,0.419729,-0.605934,0.000000,0.000000,1.000000
5.074938,5.209443,-0.400459,-0.728981,-0.470742,-0.285910,-0.516582,-0.221881,-0.474697,-0.364228,-0.489611,-0.415121,-0.423871,-0.374100,-0.338507,-0.335448,-0.440821,-0.275912,-0.476669,-0.316205,-0.419083,-0.435351,-0.373168,-0.381005,-0.364009,-0.295133,-0.419236,-0.321238,-0.405413,-0.249471,-0.386464,-0.423120,-0.381561,-0.413001,-0.458627,-0.458269,-0.557592,-0.441352,-0.622404,-0.622432,-0.583056,-0.608075,-0.576251,-0.604541,-0.338240,-0.252594,-0.128229,0.080779,0.005436,0.090580,0.133271,0.070463,0.215560,0.123629,0.126286,0.104649,0.171165,0.275528,0.064806,0.090784,0.207244,0.074381,0.073154,-0.035178,0.014441,0.020733,-0.055420,0.061834,0.001649,-0.045073,-0.000144,-0.088511,0.027804,-0.113206,-0.102499,-0.142350,0.030285,0.058076,-0.063981,-0.042532,0.014494,-0.023856,0.002241,-0.094644,-0.004377,-0.020559,0.044817,0.306957,0.247880,0.451953,0.634653,0.597060,0.648970,0.535447,0.619615,0.452442,0.417844,0.690572,0.265507,0.124854,-0.029220,-0.159933,-0.009723,0.045878,0.118348,-0.016946,-0.192118,-0.067447,-0.163311,-0.166538,-0.231626,-0.172376,-0.391524,-0.917618,-1.327729,-0.376568,1.988782,5.755191,7.282647,2.920909,-0.746842,-0.752814,-0.302414,-0.390509,-0.331031,-0.392724,-0.411367,-0.274209,-0.411380,-0.358879,-0.311677,-0.400084,-0.289355,-0.413799,-0.371655,-0.366338,-0.406302,-0.338272,-0.367094,-0.361322,-0.324380,-0.405514,-0.262191,-0.400644,-0.305114,-0.302106,-0.315568,-0.283809,-0.376017,-0.370492,-0.397784,-0.583363,-0.501237,-0.652524,-0.608281,-0.707067,-0.683332,-0.564798,-0.525424,-0.357581,-0.173376,-0.104093,0.114930,0.063404,0.286906,0.203826,0.270692,0.291874,0.367858,0.268656,0.444182,0.229531,0.459734,0.139799,0.439059,0.187424,0.383597,0.101781,0.571636,-0.272438,0.000000,0.000000,0.000000,0.000000,0.000000,0.000000,0.000000,1.000000
4.804444,5.424269,-0.001357,-0.951044,-0.770377,-0.394385,-0.672534,-0.425265,-0.707339,-0.434034,-0.582927,-0.549923,-0.535055,-0.522798,-0.564899,-0.486605,-0.643337,-0.491045,-0.624380,-0.522144,-0.556357,-0.544801,-0.528255,-0.554077,-0.530340,-0.488507,-0.592495,-0.435356,-0.547838,-0.448802,-0.542972,-0.558615,-0.553725,-0.687754,-0.724456,-0.729142,-0.832307,-0.784926,-0.911920,-0.746296,-0.735559,-0.613053,-0.429991,-0.345264,-0.176494,-0.131748,-0.045493,0.043377,-0.023342,0.067273,0.100867,0.063514,0.141581,0.078907,0.117082,0.062155,0.022462,0.133811,-0.014483,0.061508,0.047073,0.031386,0.080306,-0.025284,0.035720,0.030453,-0.023421,-0.006003,-0.048873,0.044695,-0.010654,-0.058257,0.019723,-0.075043,0.007847,-0.017180,-0.108614,-0.018403,-0.065902,0.004112,0.035982,-0.054280,0.058163,-0.057954,0.121758,0.021093,0.201192,0.394445,0.380827,0.485901,0.563351,0.638900,0.652655,0.507633,0.573975,0.461348,0.517595,0.709265,0.349395,0.226407,0.006679,-0.055254,-0.005782,-0.027068,0.020937,-0.020806,-0.045565,-0.031445,-0.139349,-0.059608,-0.129654,-0.103750,-0.331896,-0.880600,-1.148659,-0.286636,2.252418,5.746264,7.127075,2.811123,-0.814202,-0.353950,-0.203644,-0.327537,-0.251201,-0.308022,-0.324597,-0.291170,-0.345756,-0.311793,-0.321728,-0.344908,-0.256637,-0.349100,-0.231540,-0.326271,-0.317444,-0.218823,-0.319169,-0.284198,-0.295278,-0.328367,-0.257577,-0.335642,-0.263409,-0.303822,-0.259989,-0.342555,-0.333302,-0.253283,-0.317587,-0.340544,-0.273216,-0.373806,-0.246583,-0.378601,-0.329097,-0.336834,-0.324436,-0.225646,-0.094641,0.002124,0.222678,0.106673,0.355085,0.255539,0.352391,0.325342,0.426438,0.381830,0.391730,0.286778,0.444966,0.184346,0.402467,0.082851,0.436796,0.073197,0.521384,-0.293891,0.000000,0.000000,0.000000,0.000000,0.000000,0.000000,0.000000,1.000000
5.316389,5.407051,-0.632688,-0.645042,-0.490950,-0.377589,-0.570521,-0.365235,-0.610921,-0.402822,-0.583995,-0.462799,-0.541842,-0.500991,-0.501640,-0.467726,-0.511127,-0.406874,-0.593908,-0.369569,-0.508302,-0.466354,-0.487020,-0.500641,-0.478851,-0.476556,-0.504899,-0.444630,-0.492107,-0.460587,-0.577924,-0.431542,-0.488722,-0.530413,-0.476470,-0.528136,-0.491997,-0.485886,-0.583322,-0.481706,-0.554212,-0.437969,-0.325018,-0.219719,-0.001759,-0.018336,0.078987,0.179707,0.106508,0.218322,0.194665,0.281476,0.210885,0.166827,0.230013,0.132772,0.131374,0.079337,0.068118,0.151192,0.054805,0.083391,0.069946,0.033055,0.070259,-0.046915,0.000615,-0.056293,-0.123769,-0.011186,-0.086288,-0.023483,-0.027444,-0.081109,0.024054,-0.100401,-0.024346,-0.007413,-0.048328,0.064405,0.012157,0.065435,0.094240,-0.009102,0.106835,0.080442,0.302037,0.356646,0.392762,0.586570,0.563015,0.695300,0.665572,0.494177,0.639918,0.441077,0.723833,0.656626,0.261146,0.164065,-0.058574,-0.008864,-0.086851,-0.139327,-0.067547,-0.140293,-0.144047,-0.103154,-0.132945,-0.005665,-0.066876,-0.184140,-0.649587,-0.951685,-1.302914,-0.716779,1.666115,4.950019,7.070361,3.970386,-0.433961,-0.606921,-0.255748,-0.333610,-0.213919,-0.384880,-0.299553,-0.404833,-0.372671,-0.322089,-0.370517,-0.299833,-0.364075,-0.398440,-0.248561,-0.395703,-0.227897,-0.281787,-0.309825,-0.235253,-0.303361,-0.285103,-0.302548,-0.346356,-0.271027,-0.421645,-0.290654,-0.305475,-0.278319,-0.282190,-0.347199,-0.328705,-0.323623,-0.422166,-0.296094,-0.496650,-0.406417,-0.519912,-0.473300,-0.406566,-0.388489,-0.301016,-0.129543,-0.130831,0.106107,0.000477,0.265758,0.090769,0.303957,0.188701,0.281986,0.131439,0.293021,0.092637,0.422257,-0.034357,0.379000,-0.109876,0.483698,-0.496557,0.000000,0.000000,0.000000,0.000000,0.000000,0.000000,0.000000,1.000000
5.017614,6.321863,0.490814,-0.614081,-0.347482,-0.175731,-0.265305,-0.186419,-0.363708,-0.214497,-0.430582,-0.195765,-0.364119,-0.222574,-0.301251,-0.330147,-0.260100,-0.246674,-0.301305,-0.118431,-0.320234,-0.150570,-0.250989,-0.218265,-0.244557,-0.272918,-0.245864,-0.285137,-0.335635,-0.189878,-0.277282,-0.180656,-0.287746,-0.278167,-0.255288,-0.339478,-0.289362,-0.330962,-0.431479,-0.366277,-0.496031,-0.344934,-0.355572,-0.299583,-0.129087,-0.092832,0.075689,0.103770,0.197496,0.262248,0.223737,0.351011,0.271895,0.278865,0.269334,0.245456,0.326557,0.283340,0.169868,0.278168,0.137179,0.247378,0.088858,0.211187,0.171627,0.040698,0.083203,0.100989,0.125599,0.176070,0.062160,0.132123,0.017398,0.060491,0.065721,0.006034,0.054607,-0.002916,-0.048043,0.040887,-0.039566,0.120175,0.082834,0.025827,-0.028164,-0.063998,0.076109,0.088275,0.098253,0.307368,0.274809,0.454652,0.472403,0.607593,0.638842,0.535864,0.562893,0.508265,0.482277,0.393831,0.428816,0.749496,0.575586,0.320092,0.254774,-0.057979,-0.090308,-0.229659,-0.149691,-0.075229,-0.294891,-0.101463,-0.240945,-0.257612,-0.291626,-0.340569,-0.379860,-0.719180,-1.157625,-1.359026,-0.257234,2.317829,5.683813,6.553994,2.772482,-0.816150,-0.858789,-0.587198,-0.533541,-0.379169,-0.452341,-0.365135,-0.458204,-0.486983,-0.460088,-0.470343,-0.462474,-0.464465,-0.498903,-0.501001,-0.606406,-0.477995,-0.466411,-0.439592,-0.496442,-0.577503,-0.520485,-0.468604,-0.477964,-0.527224,-0.580866,-0.387160,-0.488971,-0.382995,-0.401652,-0.467522,-0.521176,-0.540546,-0.536185,-0.485570,-0.694377,-0.586206,-0.687808,-0.700176,-0.747404,-0.784677,-0.762335,-0.610665,-0.620257,-0.368235,-0.302648,-0.120751,-0.172815,0.123467,0.066738,0.102517,0.083832,0.173420,0.019042,0.235250,-0.084216,0.323622,-0.135766,0.367145,-0.455188,0.000000,0.000000,1.000000
4.819562,5.475818,0.335453,-0.770022,-0.630202,-0.356593,-0.387380,-0.216439,-0.356300,-0.201594,-0.425479,-0.285982,-0.383856,-0.300773,-0.364209,-0.328051,-0.388173,-0.405778,-0.454315,-0.294570,-0.362355,-0.294170,-0.447051,-0.407409,-0.370641,-0.331416,-0.369700,-0.446612,-0.351655,-0.285144,-0.347976,-0.220631,-0.333987,-0.354066,-0.412210,-0.414879,-0.358894,-0.462742,-0.532337,-0.463958,-0.593675,-0.560101,-0.644644,-0.644055,-0.537660,-0.486772,-0.369466,-0.194131,-0.086809,-0.030005,0.071352,0.253355,0.156199,0.209844,0.243674,0.181795,0.252567,0.168191,0.210193,0.251217,0.132640,0.218702,0.171673,0.128699,0.153470,0.118310,0.080769,-0.031842,0.003185,0.048917,0.027151,0.092719,-0.121658,-0.100550,0.010371,-0.065192,0.018195,-0.038275,-0.060891,-0.002791,-0.063665,0.025094,-0.134043,-0.005355,0.028798,-0.069109,0.066067,-0.027918,-0.041410,0.015835,0.077353,0.254810,0.255243,0.375760,0.538028,0.493023,0.638700,0.506296,0.474120,0.460116,0.324628,0.524367,0.561765,0.260192,0.104475,-0.147850,-0.086467,-0.185217,-0.079567,-0.180311,-0.185942,-0.136772,-0.144306,-0.205673,-0.126835,-0.373145,-0.579116,-1.140021,-1.239756,0.047035,2.386463,5.804115,7.111089,3.642596,-0.106511,-1.013615,-0.969972,-0.580019,-0.423295,-0.368747,-0.398501,-0.326183,-0.408528,-0.344310,-0.310086,-0.403067,-0.304309,-0.349667,-0.324101,-0.324113,-0.324790,-0.247383,-0.295513,-0.309339,-0.248792,-0.363861,-0.192519,-0.353604,-0.317697,-0.309541,-0.333110,-0.270981,-0.312325,-0.343650,-0.237448,-0.311090,-0.230500,-0.338706,-0.337772,-0.367120,-0.497780,-0.425029,-0.503546,-0.555235,-0.501747,-0.625386,-0.470340,-0.558203,-0.375883,-0.277863,-0.141153,0.007006,0.130152,0.113339,0.330533,0.177072,0.452379,0.202000,0.397585,0.241557,0.402561,0.129249,0.585338,-0.207287,0.000000,0.000000,0.000000,1.000000
5.578110,4.885363,-0.917319,-0.419289,-0.449339,-0.117221,-0.431040,-0.185338,-0.506723,-0.312221,-0.417482,-0.334402,-0.433310,-0.321243,-0.342590,-0.221592,-0.395274,-0.235275,-0.386870,-0.258824,-0.393202,-0.326441,-0.333839,-0.337051,-0.380855,-0.259274,-0.367730,-0.202858,-0.369675,-0.247375,-0.309615,-0.288123,-0.268809,-0.318504,-0.331102,-0.295177,-0.369166,-0.276468,-0.386943,-0.327629,-0.372986,-0.378467,-0.401869,-0.412715,-0.316673,-0.212347,-0.227149,0.001531,0.029489,0.178689,0.232572,0.287894,0.375198,0.285460,0.353481,0.333850,0.221007,0.418743,0.218697,0.310341,0.276023,0.243289,0.237899,0.203430,0.210375,0.198256,0.124455,0.205354,0.094169,0.173460,0.129334,0.094937,0.143136,0.017735,0.059081,0.099464,-0.036154,0.065204,-0.008832,0.045857,-0.029501,-0.056116,0.053993,-0.034711,0.023335,0.015045,-0.009646,0.056144,-0.015841,0.047251,0.040402,0.135468,0.384792,0.409757,0.473558,0.590132,0.640113,0.727513,0.567034,0.519075,0.518336,0.418565,0.673303,0.594471,0.315491,0.243713,-0.014673,0.079970,-0.128333,-0.122374,-0.166757,-0.149315,-0.156847,-0.256616,-0.180399,-0.216087,-0.266359,-0.223605,-0.466652,-0.710251,-1.225810,-1.560089,-0.376060,1.836708,5.280211,7.173709,4.160525,-0.232704,-1.006044,-0.385173,-0.483963,-0.406142,-0.431402,-0.443249,-0.397642,-0.429236,-0.469506,-0.345992,-0.458138,-0.381833,-0.543911,-0.470059,-0.429911,-0.474841,-0.369549,-0.426244,-0.465585,-0.324116,-0.521297,-0.418770,-0.518503,-0.467865,-0.424840,-0.401790,-0.401866,-0.415332,-0.405372,-0.320995,-0.458263,-0.307657,-0.409728,-0.352202,-0.408539,-0.425191,-0.461083,-0.430380,-0.491202,-0.371155,-0.574401,-0.421315,-0.516686,-0.289744,-0.235908,-0.137784,-0.041312,0.010350,-0.091841,0.183841,-0.053482,0.164498,-0.199791,0.131547,-0.122533,0.163738,-0.284152,0.336854,-0.736680,1.000000
5.175063,6.495780,0.943903,-0.565116,-0.351089,0.028920,-0.233248,0.020958,-0.208348,-0.011508,-0.135428,-0.099811,-0.092013,-0.046677,-0.125182,-0.098907,-0.247933,-0.040985,-0.187197,-0.047781,-0.076349,-0.140594,-0.037275,-0.100909,-0.168101,-0.104387,-0.213538,-0.070302,-0.110464,-0.048964,-0.095049,-0.086931,-0.011918,-0.078934,-0.057408,-0.008080,-0.082615,-0.023242,-0.113855,-0.109467,-0.114559,-0.148212,-0.078374,-0.156857,-0.183421,-0.120176,-0.107785,0.120736,0.110825,0.256941,0.336741,0.236599,0.414635,0.371614,0.391821,0.299627,0.257417,0.371862,0.315369,0.284420,0.308895,0.242423,0.304056,0.141618,0.199615,0.188495,0.109564,0.189830,0.134827,0.067550,0.113696,-0.011392,0.016181,-0.022560,0.068679,0.058605,-0.028922,-0.040288,-0.102221,-0.051988,0.038655,-0.078995,0.026344,-0.073408,-0.057359,-0.029272,-0.050709,0.052885,-0.022807,0.048657,0.081668,0.088927,0.371516,0.290284,0.427322,0.529465,0.509516,0.591274,0.468862,0.514405,0.438751,0.501924,0.437393,-0.016458,-0.077596,-0.098959,-0.136136,-0.107920,-0.186476,-0.166680,-0.126191,-0.385879,-0.261262,-0.351625,-0.287291,-0.302769,-0.751443,-1.175199,-1.525696,-0.140548,2.541987,6.003459,6.110314,1.294119,-1.051511,-0.768918,-0.683465,-0.575059,-0.570983,-0.465166,-0.494015,-0.531074,-0.390971,-0.504953,-0.482889,-0.582949,-0.628730,-0.568570,-0.553005,-0.620986,-0.588026,-0.524124,-0.448422,-0.666716,-0.521119,-0.494054,-0.516942,-0.463448,-0.489963,-0.538555,-0.497741,-0.576170,-0.523237,-0.668287,-0.532789,-0.660112,-0.703931,-0.671710,-0.773173,-0.907358,-0.861336,-0.936595,-0.675367,-0.935426,-0.638455,-0.599990,-0.339820,-0.205693,-0.146077,-0.155576,-0.013036,-0.119074,0.043816,-0.214861,-0.009468,-0.140616,0.081065,-0.107299,0.031631,-0.143542,0.091197,-0.316301,0.227583,-0.815599,0.000000,0.000000,0.000000,1.000000
5.200128,4.450362,-0.707753,-0.518074,-0.681359,-0.287529,-0.484697,-0.231750,-0.326212,-0.287027,-0.294265,-0.189220,-0.357459,-0.271346,-0.479015,-0.364042,-0.379925,-0.369854,-0.438717,-0.347893,-0.269245,-0.352581,-0.453869,-0.244932,-0.348116,-0.269148,-0.275620,-0.325640,-0.311791,-0.346505,-0.343286,-0.404034,-0.422470,-0.356726,-0.531579,-0.477788,-0.506050,-0.689322,-0.667270,-0.757973,-0.575556,-0.610918,-0.649320,-0.368991,-0.322275,-0.014830,0.025427,0.048742,0.139812,0.133106,0.186477,0.129584,0.062024,0.164906,0.149153,0.242223,0.134637,0.172756,0.179887,0.103623,0.134163,0.036117,0.009693,0.164754,-0.012778,0.123335,0.015033,-0.075965,0.065600,-0.084060,-0.037636,-0.019827,-0.082442,0.003383,-0.069362,-0.019629,-0.022063,-0.061932,0.003546,-0.087576,0.056038,-0.028242,0.004980,0.100175,-0.000956,0.039061,0.079957,0.173823,0.427061,0.281215,0.517263,0.580088,0.530859,0.594287,0.464437,0.565083,0.414831,0.408569,0.574244,0.137983,0.045339,-0.131805,-0.143656,-0.058136,-0.140552,-0.167313,-0.161096,-0.198310,-0.108019,-0.254367,-0.183493,-0.294988,-0.746306,-1.143538,-1.365683,0.258932,3.306930,6.848257,6.626882,1.024366,-1.012360,-0.402413,-0.405198,-0.321036,-0.413664,-0.405889,-0.375689,-0.443949,-0.320247,-0.491648,-0.310669,-0.279532,-0.308979,-0.283938,-0.360680,-0.383591,-0.329487,-0.412027,-0.280495,-0.384279,-0.371124,-0.359978,-0.386086,-0.359194,-0.385951,-0.353155,-0.307305,-0.444677,-0.325885,-0.540037,-0.407879,-0.511812,-0.559776,-0.573535,-0.606468,-0.596436,-0.542172,-0.647532,-0.394592,-0.423075,-0.069226,-0.051093,0.076678,0.177360,0.295325,0.314124,0.412106,0.229822,0.490223,0.219406,0.418160,0.159906,0.337062,0.213331,0.385605,0.184212,0.461466,0.006116,0.659625,-0.425198,0.000000,0.000000,0.000000,0.000000,0.000000,0.000000,0.000000,1.000000
5.186024,4.209487,-1.121189,-0.523295,-0.654094,-0.327270,-0.563400,-0.446205,-0.540720,-0.468232,-0.524963,-0.447280,-0.592594,-0.300355,-0.470609,-0.344198,-0.459625,-0.460892,-0.470386,-0.457372,-0.476099,-0.385709,-0.535099,-0.420744,-0.508710,-0.451804,-0.482841,-0.480539,-0.404917,-0.501497,-0.473711,-0.527506,-0.605885,-0.506730,-0.678844,-0.634823,-0.696404,-0.702054,-0.635476,-0.720555,-0.599420,-0.505277,-0.357087,-0.117757,-0.138636,0.037604,0.114878,0.173123,0.266960,0.148145,0.258323,0.219816,0.171284,0.184311,0.074238,0.188738,0.144998,0.170403,0.192839,0.100009,0.182525,0.103959,0.046561,0.117050,-0.031336,0.027644,0.002092,-0.029731,0.031305,-0.067945,0.027034,-0.036822,-0.038321,0.008925,-0.002572,0.046478,0.002455,-0.003864,0.078745,-0.005822,0.081055,-0.003534,0.017389,0.044013,-0.037251,0.303862,0.399360,0.415895,0.585717,0.562931,0.665456,0.527299,0.473183,0.482740,0.414279,0.741754,0.787613,0.367314,0.340389,0.106531,0.123496,0.001992,-0.084299,-0.058101,-0.128846,-0.134799,-0.190420,-0.213256,-0.152994,-0.262402,-0.521514,-1.023939,-1.296569,-0.211331,2.625221,6.423944,7.148497,1.611044,-0.944135,-0.299941,-0.306683,-0.292067,-0.364922,-0.321420,-0.441490,-0.407436,-0.433900,-0.382827,-0.325129,-0.459453,-0.285723,-0.398614,-0.370233,-0.300648,-0.377814,-0.312679,-0.325957,-0.372088,-0.293845,-0.434783,-0.294835,-0.441090,-0.402012,-0.362054,-0.403906,-0.280652,-0.277541,-0.356993,-0.328655,-0.426106,-0.252762,-0.356979,-0.316086,-0.410267,-0.402004,-0.363641,-0.269379,-0.295767,-0.052344,-0.072601,0.198722,0.114667,0.294509,0.225253,0.299636,0.235377,0.284554,0.168560,0.441797,0.105055,0.380650,0.091610,0.299553,-0.002031,0.258273,-0.028522,0.479584,-0.540242,0.000000,0.000000,0.000000,0.000000,0.000000,0.000000,0.000000,0.000000,0.000000,1.000000
5.781309,4.754311,-1.153631,-0.309108,-0.555513,-0.174734,-0.565441,-0.262820,-0.574115,-0.408038,-0.562752,-0.424325,-0.440319,-0.440133,-0.481486,-0.329754,-0.550292,-0.303176,-0.474869,-0.367565,-0.400126,-0.412381,-0.396383,-0.428941,-0.453064,-0.387939,-0.567555,-0.371910,-0.512181,-0.365253,-0.337586,-0.389798,-0.407194,-0.460425,-0.397957,-0.342976,-0.433060,-0.403598,-0.513727,-0.431151,-0.368477,-0.356882,-0.202561,-0.105706,0.038180,0.142936,0.148427,0.265005,0.196811,0.253554,0.219774,0.159738,0.319217,0.217047,0.188272,0.235044,0.101268,0.156685,0.015257,0.133335,0.146745,0.012006,0.099185,0.006845,0.024094,0.021636,-0.107915,0.025318,-0.138482,-0.090155,-0.055045,-0.200141,-0.052729,-0.170109,-0.031544,-0.021427,-0.110618,-0.011516,-0.082662,-0.007318,-0.029688,-0.124551,0.008655,-0.059037,-0.021038,0.123263,0.193342,0.487011,0.394393,0.544351,0.695313,0.625656,0.681852,0.494478,0.627269,0.484280,0.584904,0.633410,0.278264,0.241058,0.057010,-0.062146,-0.094487,-0.197177,-0.147839,-0.148962,-0.188672,-0.105074,-0.222720,-0.161273,-0.149174,-0.284172,-0.608683,-1.205221,-1.408685,-0.290821,2.531521,6.309407,6.678825,1.662087,-0.996632,-0.462442,-0.337517,-0.453258,-0.379592,-0.341099,-0.433756,-0.382121,-0.489729,-0.344323,-0.341582,-0.365234,-0.263824,-0.475561,-0.341839,-0.376761,-0.359953,-0.288501,-0.438261,-0.315156,-0.333742,-0.474940,-0.344578,-0.376927,-0.213099,-0.294009,-0.251327,-0.263674,-0.348917,-0.336316,-0.280593,-0.358505,-0.241831,-0.423615,-0.305146,-0.377232,-0.387768,-0.357290,-0.453933,-0.374423,-0.275124,-0.314375,-0.056234,-0.109191,0.155836,0.050060,0.179468,0.156018,0.232654,0.172338,0.263016,0.058811,0.350313,0.037302,0.358931,0.005784,0.354629,-0.098038,0.433435,-0.554988,0.000000,0.000000,0.000000,0.000000,0.000000,0.000000,0.000000,1.000000
5.191904,4.341085,-0.941792,-0.363645,-0.445216,-0.180144,-0.504275,-0.118912,-0.464383,-0.212895,-0.477117,-0.265355,-0.303580,-0.256693,-0.253738,-0.273910,-0.406649,-0.193579,-0.393113,-0.147890,-0.376323,-0.264237,-0.249713,-0.347436,-0.353264,-0.258247,-0.243366,-0.127323,-0.262830,-0.118097,-0.293568,-0.247525,-0.244072,-0.239873,-0.235019,-0.239618,-0.346098,-0.196847,-0.390992,-0.228420,-0.390727,-0.325513,-0.237189,-0.232326,-0.094670,0.010725,0.090413,0.227254,0.136077,0.299177,0.231485,0.303137,0.286509,0.218943,0.285808,0.282245,0.235921,0.309359,0.181868,0.283694,0.135526,0.168334,0.218472,0.036815,0.113707,0.086823,0.061240,0.038706,-0.036608,0.070440,-0.140435,-0.031959,0.009254,-0.023786,0.028531,-0.060896,-0.150005,0.035926,-0.091997,0.067451,-0.023107,0.018057,-0.009574,-0.108655,-0.034024,-0.029327,0.086525,0.295658,0.283573,0.451021,0.454183,0.628947,0.600284,0.521387,0.578522,0.487539,0.456784,0.599243,0.537297,0.434755,0.215953,0.118606,-0.025888,-0.106953,-0.099955,-0.149512,-0.183322,-0.100104,-0.275437,-0.157818,-0.297711,-0.190389,-0.248095,-0.270120,-0.448175,-0.815741,-1.423911,-1.168432,0.468212,3.338919,6.667771,6.742901,2.224856,-0.832119,-0.723146,-0.474994,-0.388825,-0.387534,-0.497631,-0.409105,-0.452932,-0.387296,-0.453685,-0.465304,-0.321080,-0.394044,-0.431514,-0.354410,-0.395653,-0.396099,-0.487439,-0.337083,-0.392370,-0.455548,-0.450284,-0.496318,-0.432104,-0.433352,-0.455476,-0.325939,-0.471730,-0.360567,-0.330006,-0.424570,-0.298125,-0.358855,-0.382545,-0.394841,-0.573390,-0.471005,-0.738199,-0.593930,-0.669594,-0.711516,-0.783946,-0.785831,-0.676136,-0.461929,-0.464530,-0.141198,-0.197099,0.123483,0.025552,0.190225,0.141775,0.228125,0.073489,0.355995,0.023686,0.436645,-0.130369,0.532925,-0.430418,0.000000,0.000000,0.000000,0.000000,1.000000
