4.874990,5.325228,-0.144044,0.235469,0.303692,0.630442,0.248614,0.576930,0.189831,0.449245,0.406633,0.301034,0.283872,0.304682,0.308679,0.480209,0.210994,0.432093,0.180122,0.285557,0.352378,0.258273,0.258087,0.251064,0.229686,0.213504,0.013627,0.260166,0.050222,0.250172,0.133993,-0.008145,0.122332,-0.064088,-0.221375,-0.164158,-0.361583,-0.384659,-0.613539,-0.626151,-0.712671,-0.814304,-0.786024,-0.866000,-0.882366,-0.652184,-0.587049,-0.249635,-0.267198,-0.047240,0.227957,0.281494,0.561291,0.514668,0.561197,0.592734,0.380298,0.534938,0.494921,0.492853,0.522397,0.403629,0.484020,0.363020,0.377042,0.575076,0.209035,0.284779,0.157155,0.236782,0.149655,-0.016877,0.185886,0.122852,0.093268,0.240374,0.002858,0.048695,-0.050676,0.111697,-0.027747,-0.071245,0.012165,0.002079,-0.014487,0.128769,-0.023683,0.043871,-0.063835,0.050273,0.136106,-0.058860,-0.057721,-0.058168,-0.026863,0.240764,0.160832,0.391995,0.260269,0.305100,0.365856,0.281547,0.370849,0.229149,0.103748,0.069612,-0.036238,0.138957,-0.124599,-0.214302,-0.102400,-0.165003,-0.074677,-0.162476,-0.147753,-0.098914,-0.501669,-0.642376,-1.226700,-0.209432,1.894702,3.038657,5.089921,5.779895,1.376844,-1.976605,-1.734297,-0.823689,-0.598768,-0.591225,-0.545706,-0.557549,-0.433413,-0.578350,-0.539329,-0.383149,-0.638160,-0.446606,-0.480731,-0.469029,-0.413262,-0.478870,-0.367268,-0.486465,-0.482337,-0.347531,-0.516081,-0.406230,-0.547879,-0.474726,-0.508850,-0.616275,-0.488488,-0.669881,-0.777211,-0.686471,-0.966418,-0.894851,-1.194734,-1.171982,-1.303220,-1.490624,-1.432987,-1.515875,-1.671372,-1.533002,-1.559257,-1.214921,-1.153545,-0.756066,-0.412433,-0.365010,-0.130500,0.096745,0.096333,0.341313,0.102704,0.431932,0.104072,0.365070,0.219601,0.354076,0.050760,0.559916,-0.366532,0.000000,0.000000,1.000000
4.119649,4.155479,-0.850270,-1.582921,-1.077472,-0.301950,-0.489512,-0.262416,-0.425968,-0.225561,-0.322904,-0.365078,-0.244000,-0.281018,-0.403526,-0.180372,-0.347464,-0.178450,-0.294998,-0.198687,-0.223477,-0.314074,-0.192879,-0.231583,-0.282305,-0.238863,-0.358990,-0.226524,-0.404113,-0.323358,-0.337345,-0.552319,-0.463043,-0.604708,-0.693430,-0.758337,-0.971517,-0.896443,-1.160116,-1.156063,-1.150473,-1.314802,-1.284617,-1.247004,-1.105569,-0.875030,-0.760477,-0.290632,-0.202020,-0.087481,0.195239,0.206241,0.405743,0.324372,0.405997,0.422911,0.309794,0.477820,0.382563,0.342163,0.419269,0.313732,0.419655,0.315543,0.283514,0.423217,0.289118,0.358382,0.268366,0.262540,0.263928,0.114679,0.337813,0.126525,0.173019,0.232301,0.113986,0.222572,0.159914,0.159175,0.195626,0.076539,0.304628,0.168391,0.172480,0.210451,0.140375,0.296195,0.131824,0.212908,0.272132,0.128135,0.323311,0.161978,0.245261,0.285038,0.285275,0.463162,0.322422,0.526115,0.679194,0.449622,0.674781,0.401574,0.422710,0.376623,0.250793,0.290778,0.203647,0.181173,0.296766,0.094892,0.286560,0.119685,0.210935,0.130700,-0.062125,-0.570648,-0.915094,0.642418,3.232896,5.179142,7.193989,2.887969,-0.373076,0.090575,-0.170622,0.009694,-0.236013,-0.065946,-0.130103,-0.240595,-0.153885,-0.279798,-0.230054,-0.220907,-0.339501,-0.109793,-0.256641,-0.235688,-0.126046,-0.281015,-0.184910,-0.301497,-0.261892,-0.246761,-0.367445,-0.256155,-0.478284,-0.391766,-0.395745,-0.573538,-0.519843,-0.775591,-0.833084,-0.928869,-1.055639,-1.022340,-1.267340,-1.252092,-1.236715,-1.404174,-1.209910,-1.259427,-0.941546,-0.711156,-0.430677,-0.145250,-0.003246,0.174655,0.329473,0.152236,0.402835,0.183388,0.441916,0.250625,0.309798,0.333753,0.384448,0.212555,0.518423,0.030613,0.545465,-0.312164,0.000000,0.000000,0.000000,1.000000
4.910115,5.759165,-0.050593,0.103160,-0.262957,0.063858,-0.267227,-0.092001,-0.159500,-0.172440,-0.272719,-0.160560,-0.374877,-0.127000,-0.417054,-0.151058,-0.235707,-0.267815,-0.187694,-0.211301,-0.290026,-0.206705,-0.379356,-0.177142,-0.421512,-0.247383,-0.444533,-0.443029,-0.384239,-0.529402,-0.559488,-0.653581,-0.879813,-0.835579,-1.076419,-0.978700,-1.203989,-1.266248,-1.207018,-1.361363,-1.271147,-1.217769,-1.085070,-0.729708,-0.568457,-0.196416,-0.083176,0.104940,0.280763,0.160889,0.295627,0.239232,0.290674,0.346678,0.173925,0.368324,0.289297,0.263866,0.359969,0.208922,0.232535,0.165318,0.157423,0.168142,0.046635,0.182763,-0.101898,0.008803,0.071059,-0.092397,0.076728,-0.002512,-0.050546,0.030699,-0.045194,0.113290,-0.073626,-0.066319,0.094024,-0.011606,0.119834,0.051122,0.059869,0.075126,0.061752,0.147900,-0.014198,0.047299,0.139594,0.047627,0.271846,0.210670,0.313343,0.291810,0.321109,0.607177,0.441834,0.472366,0.540149,0.163747,0.358171,0.175873,0.210024,0.190169,0.061371,0.164536,0.052329,0.058624,0.153999,-0.014730,0.121848,-0.298156,-0.602219,-1.228087,-1.099208,0.577336,2.569139,4.396552,6.643255,3.557459,-0.431852,-0.066550,-0.062725,-0.017187,-0.179882,0.020181,-0.277981,-0.076956,-0.161759,-0.217981,-0.128223,-0.243530,-0.177414,-0.140392,-0.221290,-0.062429,-0.247370,-0.102435,-0.190880,-0.234303,-0.207926,-0.235741,-0.117192,-0.226527,-0.219981,-0.217552,-0.320145,-0.346898,-0.489389,-0.482875,-0.617905,-0.751345,-0.699531,-1.086736,-0.978025,-1.089497,-1.127076,-1.044466,-1.011326,-0.803416,-0.533984,-0.405359,-0.069425,-0.074124,0.167716,0.131180,0.177094,0.271335,0.293977,0.300419,0.311949,0.204913,0.455384,0.034998,0.354531,0.078979,0.286411,-0.109678,0.405966,-0.420992,0.000000,0.000000,0.000000,0.000000,0.000000,0.000000,0.000000,1.000000
5.602657,6.290513,-0.246742,0.156568,-0.076808,0.301420,-0.186377,0.281055,-0.209044,0.079611,-0.048140,-0.055754,-0.061611,-0.037261,-0.157718,0.079937,-0.181334,0.129035,-0.150284,0.033700,-0.058483,-0.100132,-0.112723,-0.099839,-0.033954,-0.036977,-0.162926,-0.040432,-0.243855,-0.200439,-0.422386,-0.392496,-0.536760,-0.712629,-0.662153,-1.016125,-1.082893,-1.027505,-1.240179,-1.039697,-1.096195,-0.824053,-0.557240,-0.335382,-0.031101,0.116883,0.237096,0.402038,0.268613,0.524998,0.441648,0.559086,0.488203,0.441207,0.612251,0.361451,0.383550,0.462412,0.281190,0.320813,0.220718,0.364528,0.268239,0.197775,0.304684,0.059164,0.165607,0.227168,0.130602,0.248621,0.033401,0.193436,0.170354,0.011550,0.240811,0.099209,0.171753,0.131862,0.131442,0.185740,0.067723,0.227834,0.213144,0.016836,0.229558,0.039077,0.171002,0.174707,0.102817,0.225492,0.228599,0.362590,0.352798,0.315815,0.609090,0.590314,0.559191,0.410919,0.293234,0.319782,0.138993,0.150031,0.067947,0.071288,0.249386,-0.068213,0.035251,-0.050987,0.000570,0.063930,-0.016229,0.000274,-0.076125,-0.517596,-1.040209,-0.610616,1.875608,3.132365,5.876957,3.602222,-1.258837,-0.614426,-0.430305,-0.289191,-0.478518,-0.378284,-0.161147,-0.438034,-0.350231,-0.231001,-0.390746,-0.255814,-0.357043,-0.302251,-0.260049,-0.291357,-0.120183,-0.184140,-0.323145,-0.295842,-0.455519,-0.390860,-0.309753,-0.354054,-0.399745,-0.518406,-0.281206,-0.487453,-0.474808,-0.550345,-0.823882,-0.806559,-1.023770,-1.207840,-1.146400,-1.375104,-1.311530,-1.509905,-1.287977,-1.264909,-1.163231,-1.063976,-0.996014,-0.812829,-0.383116,-0.393709,0.073010,-0.043068,0.176430,0.040962,0.117542,0.139408,0.142853,0.127847,0.364599,-0.191073,0.378514,-0.280577,0.577621,-0.750969,0.000000,0.000000,0.000000,0.000000,0.000000,0.000000,0.000000,1.000000
4.465448,5.182408,-0.922864,-0.785246,-0.495135,-0.265720,-0.492658,-0.408456,-0.218010,-0.338163,-0.476379,-0.166740,-0.443834,-0.240177,-0.382696,-0.302139,-0.297584,-0.273605,-0.200126,-0.108465,-0.366380,-0.260675,-0.472267,-0.406743,-0.347660,-0.332795,-0.412455,-0.511317,-0.359194,-0.402516,-0.561239,-0.467590,-0.852460,-0.796814,-1.011372,-1.210124,-1.194745,-1.346308,-1.387081,-1.479476,-1.430655,-1.237694,-1.281383,-1.058556,-1.082992,-0.868335,-0.496740,-0.377431,-0.070819,0.057981,0.046815,0.171781,-0.008919,0.238663,0.059942,0.187943,0.286677,-0.014484,0.139106,0.039697,0.111302,0.074230,-0.229892,-0.116194,-0.067445,-0.061378,-0.098607,-0.169154,-0.023001,-0.147641,-0.229728,-0.084744,-0.143981,-0.023866,-0.141902,-0.101533,-0.021640,-0.175238,-0.140062,-0.100384,-0.070937,-0.058517,-0.134889,0.056683,-0.214217,-0.049065,-0.085886,-0.234838,-0.034614,-0.000328,0.110941,0.213166,0.170932,0.266875,0.206546,0.455748,0.315185,0.252500,0.319064,0.012031,0.181528,0.090061,-0.079298,0.125161,-0.062590,-0.002428,0.032969,-0.062081,0.108066,-0.061995,0.148770,0.025681,-0.251298,-0.586953,-1.064988,0.207454,2.531211,3.863088,6.862772,3.843911,-1.287921,-0.519936,-0.216483,0.107004,-0.082732,0.181976,-0.090212,-0.070544,0.056982,-0.066767,0.011258,0.030801,-0.045176,0.098217,-0.069016,0.246225,0.085233,0.046510,0.247317,0.046668,0.157800,0.177741,0.122094,0.116342,-0.005465,0.167426,0.017418,0.016017,0.058307,-0.206822,-0.251188,-0.345179,-0.344412,-0.420616,-0.737868,-0.565700,-0.805203,-0.932148,-0.978827,-1.087350,-0.963491,-0.816226,-0.585637,-0.202987,0.008823,0.378923,0.531093,0.641913,0.883145,0.751858,0.976874,0.895642,0.984498,0.934341,0.999431,0.993549,1.077779,0.713015,1.144765,0.385114,0.000000,0.000000,0.000000,0.000000,0.000000,0.000000,0.000000,1.000000
3.699902,4.008966,-1.353208,-1.101056,-0.836801,-0.435426,-0.660741,-0.401518,-0.599109,-0.623511,-0.542615,-0.556291,-0.616160,-0.471505,-0.645356,-0.444003,-0.633606,-0.395914,-0.435699,-0.542899,-0.382172,-0.456000,-0.499078,-0.360185,-0.491872,-0.409644,-0.587175,-0.425264,-0.514127,-0.552407,-0.508909,-0.643933,-0.795241,-0.777655,-0.894194,-0.807071,-1.155733,-1.035585,-1.153110,-1.303391,-1.353304,-1.419002,-1.417851,-1.237609,-1.146632,-0.789605,-0.628439,-0.331683,-0.143636,-0.076888,0.123780,0.104190,0.155410,0.248604,0.179849,0.273369,0.199617,0.296105,0.295102,0.155723,0.195583,0.127903,0.215095,0.171322,0.036481,0.214174,0.024634,0.104394,0.097542,0.022742,0.131549,-0.021287,0.057111,0.072864,-0.002536,0.130443,-0.012254,0.133794,0.139457,0.012905,0.145221,0.068501,0.112634,0.105500,0.008114,0.245226,0.075324,0.193894,0.174225,0.156098,0.196370,0.134714,0.225706,0.205828,0.191514,0.494610,0.265890,0.438182,0.523901,0.656793,0.690101,0.584026,0.591859,0.448796,0.357634,0.528564,0.298222,0.333659,0.247984,0.281277,0.330422,0.179906,0.304469,0.293749,0.127219,0.383069,0.124889,-0.127716,-0.664877,-0.564661,1.498532,3.622332,5.829816,7.192754,2.387685,-0.222327,0.191364,0.131584,0.028001,-0.151422,0.063858,-0.190268,-0.095173,-0.164278,-0.110541,-0.064536,-0.200148,-0.068394,-0.076611,-0.144531,-0.062220,-0.131830,0.012217,-0.106934,-0.069679,0.025275,-0.154864,-0.032003,-0.064235,-0.071945,-0.101210,-0.224533,-0.162596,-0.285437,-0.321511,-0.268710,-0.513190,-0.439348,-0.587393,-0.653251,-0.689678,-0.870551,-0.865784,-0.989795,-1.058425,-1.010488,-1.044295,-0.729388,-0.712964,-0.404476,-0.143117,0.009154,0.275834,0.424037,0.414155,0.634972,0.396002,0.602776,0.389210,0.584624,0.477852,0.523764,0.354159,0.778716,0.042850,0.000000,0.000000,1.000000
5.140711,4.794944,-0.397395,0.221097,-0.162408,0.169861,-0.404999,0.043000,-0.312052,-0.164712,-0.300653,-0.195020,-0.216105,-0.209919,-0.298539,-0.083779,-0.312032,-0.126430,-0.273118,-0.102942,-0.180974,-0.203407,-0.099347,-0.184825,-0.226000,-0.102990,-0.226345,-0.140427,-0.331283,-0.263321,-0.341976,-0.430373,-0.364306,-0.520834,-0.595048,-0.577212,-0.779491,-0.714791,-0.930288,-0.942491,-1.023665,-1.138740,-1.095345,-1.141424,-0.929650,-0.783089,-0.660509,-0.283267,-0.177133,0.076996,0.286902,0.272331,0.466927,0.359711,0.386679,0.385129,0.332748,0.467560,0.332145,0.327184,0.454251,0.344211,0.376402,0.276945,0.354822,0.426525,0.332967,0.430599,0.407436,0.476440,0.421699,0.353095,0.404858,0.243224,0.245589,0.161606,-0.005695,-0.060848,-0.083140,-0.013872,-0.024046,-0.078240,0.079390,-0.080394,0.051362,0.018504,0.031285,0.093921,0.032109,0.147242,0.133728,-0.052580,-0.252157,-0.954069,-0.749626,1.116824,3.168883,4.850068,5.990528,2.135024,-0.464630,0.011363,0.051141,0.015449,0.008857,0.005734,-0.067928,0.074197,-0.118761,-0.015744,-0.039986,-0.118161,-0.010719,-0.142749,-0.043417,-0.047334,-0.119491,-0.029955,-0.106479,-0.072389,-0.105396,-0.143029,0.042661,-0.250893,-0.119797,-0.181146,-0.164023,-0.303517,-0.417315,-0.365881,-0.457913,-0.594361,-0.492769,-0.861555,-0.788603,-0.961514,-1.013022,-1.101467,-1.153179,-1.123412,-1.042356,-1.050310,-0.711162,-0.786495,-0.448983,-0.437300,-0.260852,-0.232393,-0.086100,0.025857,0.131609,-0.076420,0.273712,-0.114506,0.243084,-0.004665,0.308997,-0.117073,0.421504,-0.569156,0.000000,0.000000,0.000000,0.000000,0.000000,0.000000,0.000000,0.000000,0.000000,0.000000,0.000000,0.000000,0.000000,0.000000,0.000000,0.000000,0.000000,0.000000,0.000000,0.000000,0.000000,0.000000,0.000000,0.000000,0.000000,0.000000,0.000000,4.000000
4.466474,5.218071,-0.623781,-0.579876,-0.349541,-0.147463,-0.361874,-0.298000,-0.446099,-0.188840,-0.452146,-0.207960,-0.252450,-0.241228,-0.153245,-0.274537,-0.174968,-0.133308,-0.293335,-0.123470,-0.311493,-0.102633,-0.225727,-0.260863,-0.173899,-0.303920,-0.272974,-0.173328,-0.305791,-0.211132,-0.449459,-0.291620,-0.464226,-0.523496,-0.592482,-0.820902,-0.874320,-0.944086,-1.157451,-1.105342,-1.341665,-1.150288,-1.302723,-1.209920,-0.883816,-0.753078,-0.434255,-0.196252,0.021985,0.182708,0.058215,0.183906,0.215817,0.239521,0.322063,0.255842,0.358884,0.320166,0.262639,0.425403,0.160012,0.295654,0.248974,0.190236,0.218560,0.102906,0.207806,0.081908,0.040455,0.182930,-0.052729,0.076432,-0.006065,-0.063263,0.111271,-0.063009,0.033568,0.062787,-0.003858,0.133043,0.003684,0.133794,0.063980,0.075415,0.169063,-0.034071,0.200493,0.126047,0.075858,0.286769,0.085301,0.166954,0.166494,0.043503,0.224683,0.126296,0.450297,0.310222,0.389052,0.607199,0.529823,0.644685,0.552891,0.367196,0.472148,0.257440,0.359864,0.124817,0.201175,0.210995,0.022045,0.152721,0.135210,0.152644,0.163961,0.007148,-0.099169,-0.811108,-0.991082,0.847477,3.253402,5.460528,7.059354,1.966068,-0.579367,-0.022655,-0.266580,-0.219506,-0.277272,-0.076388,-0.384285,-0.217435,-0.290651,-0.253449,-0.268884,-0.308179,-0.165583,-0.282572,-0.213462,-0.087124,-0.312499,-0.116025,-0.149780,-0.220044,-0.146515,-0.359497,-0.196715,-0.311352,-0.305595,-0.212210,-0.442932,-0.376630,-0.501491,-0.659743,-0.679956,-0.898487,-0.882542,-1.129149,-1.114313,-1.177375,-1.334957,-1.190930,-1.168760,-1.107855,-0.723076,-0.710496,-0.327546,-0.345806,-0.158081,0.097003,0.134843,0.332368,0.326284,0.353757,0.441151,0.202342,0.536054,0.182574,0.402363,0.331319,0.344088,0.128987,0.585803,-0.286511,0.000000,0.000000,0.000000,1.000000
5.396384,5.474226,-0.746616,0.006590,-0.515502,-0.133097,-0.583502,-0.068217,-0.493882,-0.328862,-0.425206,-0.330917,-0.416113,-0.365173,-0.396175,-0.244735,-0.481323,-0.118642,-0.400437,-0.292587,-0.221880,-0.305563,-0.283479,-0.352568,-0.448424,-0.272701,-0.536139,-0.258290,-0.514908,-0.510183,-0.555458,-0.733581,-0.808754,-0.934048,-1.070681,-1.128240,-1.369318,-1.227041,-1.514413,-1.409572,-1.337422,-1.334959,-1.034403,-0.825208,-0.670480,-0.353810,-0.465685,-0.007430,-0.026528,0.206385,0.258654,0.247965,0.376584,0.195401,0.313786,0.328924,0.117714,0.401756,0.199163,0.166380,0.277839,0.144267,0.212088,0.095139,0.149864,0.156897,-0.072811,0.146320,0.048380,0.065447,0.025836,0.038549,0.137511,-0.022821,-0.041114,0.144809,-0.093456,0.165965,0.061638,0.120852,0.134897,0.043416,0.262610,0.121154,0.140319,0.316212,0.089730,0.295595,0.204345,0.231078,0.143288,0.214564,0.409622,0.348127,0.521017,0.561918,0.585551,0.815166,0.713569,0.602734,0.451881,0.472251,0.419891,0.284003,0.295496,0.389915,0.178835,0.346972,0.162962,0.249590,0.175728,0.174372,0.244738,-0.169114,-0.710080,-0.898353,0.583372,2.916690,4.655198,6.476746,1.746370,-0.776645,0.158278,-0.123168,0.086335,-0.069060,-0.103846,0.102335,-0.131939,-0.115475,-0.021048,-0.181637,0.052239,-0.192547,-0.090349,0.042557,-0.126342,0.044820,-0.086930,-0.006160,-0.079323,-0.097279,-0.018435,-0.228770,-0.131378,-0.073849,-0.269026,-0.159178,-0.489339,-0.402755,-0.432619,-0.588808,-0.604270,-0.860384,-0.859204,-0.876610,-1.134403,-0.948983,-1.211532,-1.050006,-0.949397,-0.732373,-0.457356,-0.315663,-0.114326,0.095577,-0.035394,0.281229,-0.019119,0.257830,0.144755,0.187087,0.110774,0.107648,-0.030146,0.247495,-0.180165,0.339893,-0.423103,0.385938,-0.647785,0.000000,0.000000,0.000000,0.000000,0.000000,0.000000,1.000000
5.476898,5.632108,-0.622839,0.538611,0.167669,0.539906,0.279212,0.345385,0.322835,0.485973,0.062334,0.493778,0.101702,0.449365,0.228750,0.225368,0.397086,0.325016,0.319411,0.410247,0.260187,0.421095,0.176408,0.431446,0.148771,0.204276,0.299033,0.155733,0.149828,0.009668,-0.200530,0.027087,-0.311762,-0.205964,-0.539779,-0.570323,-0.569644,-0.808401,-0.753151,-0.829399,-0.930944,-0.618390,-0.585452,-0.123338,-0.058187,0.233145,0.430778,0.394612,0.584567,0.506875,0.494843,0.699915,0.460422,0.640405,0.403734,0.461775,0.513112,0.386817,0.497102,0.310582,0.266182,0.514988,0.254156,0.321340,0.158036,0.208224,0.099035,0.102719,0.260640,0.112236,0.113882,0.244871,-0.006784,0.284094,0.022945,0.083561,0.058925,-0.068560,0.202247,0.174226,0.132271,0.064528,0.059366,0.287209,-0.183352,0.079704,0.063348,-0.040633,0.302543,0.308656,0.391736,0.396368,0.438494,0.589926,0.277786,0.423916,0.272659,0.221104,0.156598,-0.139255,0.002231,0.022814,0.008411,0.106056,-0.149475,-0.092909,-0.145962,-0.212278,-0.087009,-0.346728,-0.755017,-1.077902,-0.254335,2.115281,3.267431,5.808021,2.325488,-1.725331,-0.761267,-0.719451,-0.381668,-0.495118,-0.574054,-0.548947,-0.563062,-0.412452,-0.418679,-0.476083,-0.365333,-0.558988,-0.490940,-0.542051,-0.571442,-0.385424,-0.677998,-0.465187,-0.479228,-0.533294,-0.491291,-0.545071,-0.510874,-0.551117,-0.586053,-0.528075,-0.837422,-0.614870,-0.775624,-0.771188,-0.823130,-1.098431,-1.053667,-1.296098,-1.436496,-1.543769,-1.852458,-1.667943,-1.869685,-1.644562,-1.487005,-1.388978,-0.944229,-0.732575,-0.525121,0.001877,-0.205753,0.148908,-0.029017,0.214090,0.050359,0.140497,0.160053,0.356543,0.061419,0.424319,-0.134601,0.654860,-0.541646,0.000000,0.000000,0.000000,0.000000,0.000000,0.000000,0.000000,0.000000,0.000000,0.000000,1.000000
5.620127,5.797365,-0.522853,0.283033,-0.091567,0.219392,-0.092026,0.127515,-0.033248,0.110198,-0.143745,0.223111,-0.124777,0.085211,0.007159,0.077118,0.086869,0.097819,0.064962,0.173563,-0.033436,0.282301,-0.063579,0.145393,0.083345,0.005485,0.003238,-0.059778,-0.057454,-0.026530,-0.247687,-0.139635,-0.396012,-0.301575,-0.510324,-0.674966,-0.622396,-0.812981,-0.974792,-1.025870,-1.174181,-1.022947,-1.203311,-0.922391,-0.830383,-0.630193,-0.143184,-0.024231,0.266347,0.526866,0.470634,0.694978,0.546871,0.805186,0.644039,0.694821,0.810299,0.621705,0.641642,0.703770,0.489857,0.639968,0.404890,0.617701,0.432056,0.345829,0.543710,0.406122,0.415559,0.373536,0.312027,0.421717,0.080390,0.299777,0.225363,0.241769,0.285283,0.176159,0.185841,0.138272,0.195856,0.359315,0.225298,0.270904,0.072730,0.082606,0.230195,0.270880,0.295583,0.213687,0.084292,0.235175,0.007452,0.305374,0.289477,0.373564,0.406290,0.427764,0.583396,0.562862,0.494958,0.640553,0.329876,0.427259,0.108807,0.247583,0.277208,0.003940,0.100572,-0.017216,-0.093186,0.075204,-0.089441,0.064213,-0.184566,-0.077986,-0.066434,-0.553437,-0.830862,-0.959513,0.532197,2.364482,3.923045,5.842896,1.978756,-1.241934,-0.555215,-0.672710,-0.339688,-0.426960,-0.487137,-0.353167,-0.442937,-0.351982,-0.581642,-0.466702,-0.339711,-0.463595,-0.324659,-0.418606,-0.374005,-0.209995,-0.460194,-0.371745,-0.469905,-0.378990,-0.423979,-0.535317,-0.346087,-0.437665,-0.462447,-0.383521,-0.492377,-0.470879,-0.568571,-0.567916,-0.641139,-0.829245,-0.805150,-1.029880,-1.313545,-1.173539,-1.549590,-1.316806,-1.571041,-1.470815,-1.563719,-1.503615,-1.110355,-0.907156,-0.828192,-0.540240,-0.385280,0.026856,-0.401861,-0.083822,-0.126496,-0.017852,-0.216597,-0.060285,-0.259438,0.150570,-0.485328,0.373266,-1.021216,0.000000,0.000000,1.000000
4.887267,5.183080,-0.692020,-0.263022,-0.389308,0.010325,-0.034518,-0.062271,-0.059718,0.035371,-0.055848,-0.028880,-0.271652,0.129897,-0.119521,0.062089,-0.010000,-0.021880,0.140846,0.063000,-0.088162,0.024058,-0.116724,0.086279,-0.210851,0.012072,-0.017169,-0.078609,-0.034068,-0.039012,-0.132965,-0.112834,-0.242487,-0.183758,-0.430233,-0.467037,-0.529974,-0.956204,-0.874924,-1.094255,-1.164636,-1.087477,-1.320895,-1.136800,-1.357114,-0.941832,-0.641381,-0.531431,-0.299749,-0.105367,0.308366,0.228977,0.071085,0.399465,0.298916,0.325221,0.246591,0.235531,0.396024,0.230342,0.308572,0.271729,0.064382,0.273404,0.116080,0.139976,0.192394,0.087108,0.019649,-0.103644,-0.085269,-0.014848,-0.204311,-0.002496,-0.219265,-0.086427,-0.175201,-0.208433,-0.087485,-0.289396,-0.197678,-0.037060,-0.282883,-0.089463,-0.213952,-0.177732,-0.244387,-0.223671,-0.051021,-0.295098,-0.232890,-0.042772,-0.273945,-0.067555,-0.285956,-0.026283,0.044689,0.000512,0.202970,0.104679,0.202080,0.364909,0.194790,0.302623,0.027849,0.146136,0.060265,-0.221171,-0.146988,-0.196295,-0.239540,-0.120575,-0.161648,0.037081,-0.172962,-0.068014,-0.083029,-0.092923,-0.207926,-0.680987,-1.113329,-0.696237,1.323942,3.386884,5.376577,6.895883,1.768469,-1.467187,-0.398407,-0.383722,-0.127137,-0.141668,-0.143433,-0.078080,-0.239816,-0.122576,-0.038185,-0.245175,0.051921,-0.124276,-0.078862,-0.059856,-0.106817,0.052445,-0.123149,-0.005808,-0.018703,-0.096433,0.090890,-0.108722,-0.202278,-0.090471,-0.193158,-0.053436,-0.331172,-0.239305,-0.296488,-0.490238,-0.354840,-0.571062,-0.655156,-0.701871,-1.049915,-0.898920,-1.247432,-1.244940,-1.317486,-1.364583,-1.239185,-0.974187,-0.609263,-0.338536,-0.233892,0.242649,0.236554,0.473092,0.582612,0.661841,0.668435,0.751362,0.661741,0.839209,0.475072,1.000023,0.355573,0.899947,0.099361,1.000000
3.945379,3.948339,-1.248913,-0.893622,-0.712927,-0.443870,-0.484947,-0.388861,-0.464443,-0.387602,-0.578075,-0.261913,-0.551953,-0.333473,-0.370588,-0.415026,-0.370083,-0.404658,-0.337753,-0.334465,-0.427114,-0.263510,-0.445852,-0.267984,-0.341689,-0.488981,-0.423891,-0.450714,-0.414643,-0.476631,-0.616184,-0.466624,-0.740672,-0.615331,-0.727725,-0.858601,-0.852634,-1.110802,-1.110043,-1.207871,-1.410946,-1.320422,-1.487507,-1.339764,-1.230147,-0.880607,-0.665987,-0.538070,-0.253952,-0.074292,-0.053710,0.193294,0.151340,0.264487,0.236940,0.264486,0.303665,0.165189,0.325008,0.221440,0.097629,0.252392,0.033685,0.194298,0.113001,0.183739,0.108359,0.009970,0.178789,0.040025,0.020639,0.121392,-0.043279,0.143051,-0.031280,0.063977,0.073277,-0.056480,0.089937,0.048051,0.014900,0.094736,-0.046009,0.123982,0.029300,0.086837,0.100316,0.009024,0.175089,0.088208,0.066385,0.160426,0.087838,0.243646,0.098169,0.342274,0.377374,0.350791,0.565475,0.529135,0.585487,0.631870,0.511119,0.499602,0.329595,0.388053,0.314692,0.231342,0.208975,0.226334,0.221445,0.288393,0.089487,0.335687,0.115583,0.150715,0.177568,-0.140582,-0.583808,-0.735161,0.868173,3.427178,5.487010,7.396747,3.159951,-0.160329,0.176768,-0.126462,0.037184,-0.198571,-0.082036,-0.209617,-0.197033,-0.128820,-0.202592,-0.116903,-0.113148,-0.134966,-0.069478,-0.229096,-0.072416,-0.078427,-0.183060,0.026230,-0.190858,-0.089602,-0.084337,-0.155497,-0.148406,-0.234759,-0.170226,-0.317673,-0.405010,-0.338634,-0.564609,-0.499719,-0.769567,-0.785135,-0.810132,-1.032066,-0.984343,-1.107640,-1.181664,-0.977283,-1.049673,-0.730455,-0.556007,-0.223013,0.005592,0.167794,0.412971,0.414024,0.362665,0.539657,0.430165,0.633896,0.402910,0.579641,0.464588,0.464481,0.450149,0.529878,0.247733,0.689014,-0.124103,0.000000,0.000000,1.000000
5.217778,4.972278,-0.491197,0.227861,-0.478421,0.014365,-0.483517,-0.168721,-0.458334,-0.309851,-0.398325,-0.289173,-0.409717,-0.197581,-0.407323,-0.172142,-0.450523,-0.251547,-0.269435,-0.332951,-0.227677,-0.262879,-0.380190,-0.176582,-0.397056,-0.262782,-0.461190,-0.317035,-0.488844,-0.564822,-0.549220,-0.671194,-0.744130,-0.829715,-1.065328,-0.904835,-1.245774,-1.152555,-1.292483,-1.367268,-1.243627,-1.200547,-1.069818,-0.727499,-0.565157,-0.151153,-0.121867,0.239952,0.222178,0.216172,0.299550,0.321504,0.369921,0.360348,0.267984,0.437666,0.182127,0.374723,0.263369,0.231501,0.273259,0.180138,0.201354,0.257315,0.097776,0.329798,0.062481,0.149449,0.061683,0.050619,0.146158,0.058864,0.076938,0.076035,-0.009989,0.096446,-0.079838,0.115582,-0.006718,0.011642,0.192547,0.065017,0.093199,0.128330,0.125705,0.210733,0.060702,0.215456,0.127834,0.137344,0.289683,0.198503,0.326545,0.364572,0.410054,0.569367,0.368051,0.688266,0.610214,0.619828,0.568394,0.387921,0.449983,0.339152,0.182287,0.363165,0.067742,0.245977,0.130925,0.226733,0.206508,0.220471,0.164716,-0.196189,-0.777178,-0.758925,0.555570,3.032683,4.885254,6.676455,2.474778,-0.671808,0.056705,-0.153344,0.004058,-0.076438,-0.096294,-0.049072,-0.160322,-0.119060,-0.064012,-0.260487,0.018062,-0.128400,-0.179013,0.005561,-0.139834,0.023111,-0.034434,0.040618,0.062164,-0.078131,-0.000842,-0.107986,-0.183648,-0.090795,-0.352583,-0.206345,-0.398829,-0.390025,-0.498691,-0.568181,-0.514491,-0.753487,-0.868745,-0.807273,-1.119099,-0.904690,-1.131009,-1.036992,-1.118174,-1.155613,-0.987342,-0.851966,-0.701421,-0.427109,-0.417258,-0.046773,-0.157740,0.171502,0.137762,0.145009,0.017258,0.147465,-0.038688,0.243191,-0.239907,0.277744,-0.386426,0.391186,-0.675281,0.000000,0.000000,0.000000,0.000000,0.000000,0.000000,1.000000
4.795974,4.782477,-0.409931,0.474661,0.080435,0.437402,0.184681,0.343277,0.192271,0.316748,0.095410,0.390684,0.033114,0.343398,0.248838,0.171186,0.288345,0.277517,0.265170,0.388665,0.286222,0.474413,0.244945,0.350755,0.263210,0.171853,0.240176,0.083880,0.065035,0.069231,-0.100862,-0.040089,-0.255630,-0.114553,-0.321796,-0.486083,-0.428555,-0.651889,-0.622393,-0.622794,-0.758576,-0.629691,-0.838871,-0.621796,-0.544066,-0.373546,-0.150703,-0.060938,0.170743,0.262921,0.341863,0.568621,0.425097,0.431710,0.411677,0.380863,0.473210,0.296854,0.367135,0.310756,0.250521,0.413682,0.197815,0.268527,0.294924,0.297379,0.322663,0.096673,0.246357,0.179258,0.044508,0.170015,0.069538,0.124637,0.086775,0.065890,0.136392,-0.007316,0.128890,0.030157,0.036688,0.181712,0.043458,0.091784,0.040601,0.012941,0.165447,-0.023424,0.166925,0.037514,0.031673,0.138076,0.089489,0.359605,0.168715,0.245948,0.377497,0.365960,0.525017,0.328158,0.174368,0.300582,0.036968,0.106818,0.080347,-0.038870,-0.010386,-0.016431,0.021337,-0.065165,-0.030783,0.068130,-0.265768,-0.522902,-0.965357,-0.589180,1.214124,1.932377,3.477088,5.261137,6.019847,2.134786,-1.322172,-0.729609,-0.530801,-0.384445,-0.353126,-0.487697,-0.373016,-0.436485,-0.457646,-0.384878,-0.523224,-0.370189,-0.447396,-0.447348,-0.346163,-0.432755,-0.335503,-0.521079,-0.444557,-0.384532,-0.591466,-0.468792,-0.426968,-0.465497,-0.560481,-0.677865,-0.506540,-0.844686,-0.710417,-0.725655,-0.764712,-0.770514,-1.018537,-1.207916,-1.202625,-1.453953,-1.370520,-1.649837,-1.554312,-1.605360,-1.471332,-1.195450,-1.081739,-0.855554,-0.612215,-0.600661,-0.266730,-0.346356,-0.144775,-0.238786,-0.158003,-0.177502,-0.185710,-0.358879,-0.046860,-0.507565,0.099246,-0.563544,0.094308,-0.985424,0.000000,0.000000,0.000000,0.000000,0.000000,1.000000
5.139988,4.979134,-0.804316,-0.617097,-0.389078,-0.072174,-0.129708,-0.110664,-0.216650,-0.036688,-0.284291,-0.030906,-0.287343,-0.096952,-0.159945,-0.176020,-0.099181,-0.112392,-0.105367,-0.145390,-0.277608,-0.033486,-0.321035,-0.226874,-0.160943,-0.169228,-0.257291,-0.419829,-0.266856,-0.481109,-0.568980,-0.396205,-0.566362,-0.464995,-0.733735,-0.956441,-0.991610,-1.189959,-1.219445,-1.360575,-1.472535,-1.346696,-1.414196,-0.991187,-0.935459,-0.656382,-0.420271,-0.330163,-0.088850,0.010775,0.043480,0.154041,0.041660,0.198329,0.066931,-0.010051,0.155703,-0.070911,0.162992,0.054091,-0.034150,0.003596,-0.106920,-0.024505,-0.132111,-0.093979,-0.052886,-0.144708,-0.109715,-0.165559,-0.067167,-0.086906,-0.192438,-0.186503,-0.133535,-0.300832,-0.155239,-0.214723,-0.066051,-0.229269,-0.095209,-0.002007,-0.143959,-0.020744,-0.072102,-0.065190,0.050475,-0.134104,0.069923,-0.047405,0.102382,0.201870,0.297167,0.487148,0.312207,0.524394,0.563275,0.416360,0.485478,0.222024,0.342476,0.227595,0.099464,0.277981,0.127565,0.132971,0.200090,0.085497,0.237198,0.054076,0.240936,0.147091,-0.085507,-0.476199,-0.925006,0.529083,2.930006,4.736525,7.000283,2.553725,-0.942292,-0.163579,-0.208859,0.041195,-0.256404,-0.133823,-0.152057,-0.110191,-0.072107,-0.096558,0.001981,-0.032457,-0.040462,0.086903,-0.053761,0.065751,-0.021884,-0.001597,0.091726,-0.074284,0.093196,-0.051647,-0.044510,0.028520,-0.148476,-0.145335,-0.150256,-0.340542,-0.253702,-0.433684,-0.311257,-0.476083,-0.700725,-0.751546,-0.902944,-1.016933,-1.169861,-1.221010,-1.065248,-1.232095,-0.836652,-0.728264,-0.372807,-0.143204,0.102770,0.288059,0.423281,0.453767,0.708883,0.348225,0.668022,0.443460,0.581273,0.434818,0.528375,0.427503,0.626418,0.263987,0.888158,-0.167099,0.000000,0.000000,0.000000,0.000000,0.000000,0.000000,0.000000,1.000000
4.228849,3.500906,-1.261985,-0.378641,-0.657988,-0.171834,-0.604870,-0.378474,-0.521665,-0.358083,-0.451826,-0.339171,-0.404408,-0.264091,-0.439507,-0.189206,-0.403684,-0.241201,-0.351722,-0.312678,-0.268021,-0.334204,-0.309220,-0.279850,-0.431398,-0.243677,-0.457734,-0.427783,-0.459800,-0.566035,-0.583402,-0.628971,-0.663086,-0.628095,-0.952404,-0.916066,-1.112370,-1.148477,-1.333080,-1.369632,-1.277064,-1.350037,-1.166450,-0.921502,-0.771627,-0.427288,-0.329010,-0.056898,-0.007183,0.083943,0.241738,0.079542,0.134415,0.192419,0.063426,0.181718,0.019561,0.162718,0.093922,0.081461,0.173096,0.053604,0.096520,0.073861,0.027657,0.063694,-0.102128,0.077802,-0.089663,-0.105765,-0.001480,-0.084217,-0.069315,-0.041035,-0.038645,0.138999,-0.087039,0.035525,-0.001814,0.083579,0.034867,0.005095,0.099771,0.056176,0.041690,0.242840,0.028779,0.166236,0.172557,0.121418,0.126473,0.081176,0.240877,0.238994,0.328560,0.507386,0.325222,0.555329,0.597358,0.681454,0.654970,0.598183,0.606354,0.461394,0.400746,0.504466,0.303919,0.433612,0.242487,0.307010,0.302671,0.263651,0.342167,0.270606,0.241872,0.314756,0.024952,-0.082776,-0.827438,-0.477328,1.459566,3.570766,5.609202,7.249562,3.431824,-0.097986,0.024331,0.015612,0.117632,-0.034356,0.066690,-0.127582,-0.002979,-0.104810,-0.055728,-0.025469,-0.095438,0.056830,-0.091368,-0.030909,0.018301,-0.054599,0.063696,-0.063145,-0.022658,-0.034083,-0.087365,0.068737,-0.127883,-0.040372,-0.102269,-0.181526,-0.220866,-0.297917,-0.266229,-0.231638,-0.468742,-0.389716,-0.630316,-0.597518,-0.788303,-0.814351,-0.916588,-1.129771,-1.180286,-1.143009,-1.287101,-1.062212,-1.100090,-0.748251,-0.668261,-0.374208,-0.140531,-0.028062,0.053107,0.251573,0.149347,0.453028,0.122828,0.424929,0.167218,0.408267,0.109385,0.523993,-0.206917,0.000000,0.000000,1.000000
5.388565,6.617738,0.387642,0.032308,0.125250,0.398181,0.106196,0.318923,0.032041,0.248715,0.130347,0.175403,0.227614,0.141948,0.231073,0.203663,0.173230,0.358426,0.120100,0.360306,0.204888,0.237850,0.304905,0.120574,0.238615,0.144685,0.146965,0.196199,-0.084097,0.132462,-0.118073,-0.125446,-0.122416,-0.324994,-0.302394,-0.488735,-0.699673,-0.630284,-0.965211,-0.864684,-1.069377,-1.131771,-0.998108,-1.102959,-0.807556,-0.713593,-0.521917,-0.108201,-0.089480,0.147944,0.158664,0.302644,0.480889,0.266924,0.330553,0.379437,0.371031,0.412516,0.154399,0.398624,0.226985,0.251853,0.341617,0.166767,0.254938,0.183099,0.155457,0.179213,0.030978,0.187372,-0.021273,-0.038120,0.048441,-0.073024,-0.002858,-0.004191,0.053696,0.064490,-0.122026,0.093111,0.122385,0.043110,0.079021,-0.128323,0.121969,0.035269,0.002650,0.058560,-0.028160,0.106371,-0.105097,-0.109757,0.036573,-0.105835,0.134823,0.189680,0.345275,0.308006,0.354984,0.536202,0.301202,0.344112,0.475079,0.103862,0.225972,0.094608,0.032063,0.022702,-0.050143,0.134837,-0.156902,-0.207807,0.024601,-0.157481,0.066418,-0.071411,0.110689,-0.331598,-0.788201,-1.072294,-0.978808,1.038501,2.563746,4.446548,6.063547,0.954019,-1.482863,-0.409136,-0.593464,-0.342694,-0.388243,-0.209441,-0.412790,-0.409547,-0.237770,-0.380325,-0.224447,-0.083645,-0.208127,-0.170185,-0.306441,-0.240642,-0.317594,-0.354230,-0.250528,-0.352478,-0.217059,-0.197470,-0.394472,-0.351640,-0.407186,-0.406583,-0.401089,-0.620842,-0.469911,-0.675020,-0.670124,-0.858913,-0.968073,-1.179675,-1.294442,-1.448522,-1.492139,-1.714917,-1.447443,-1.513630,-1.304403,-0.957870,-0.685552,-0.494071,-0.233974,-0.176370,0.121213,-0.148191,0.243303,0.023322,0.193677,0.145303,0.123610,0.053846,0.229941,-0.001283,0.353800,-0.207863,0.553539,-0.529794,0.000000,1.000000
4.238410,3.492319,-1.648088,-0.690813,-0.784968,-0.490575,-0.610091,-0.363772,-0.511346,-0.563784,-0.487321,-0.417507,-0.548770,-0.212674,-0.380239,-0.305076,-0.441420,-0.417686,-0.436344,-0.508500,-0.453420,-0.445070,-0.484533,-0.303803,-0.492774,-0.529508,-0.516867,-0.587089,-0.507557,-0.696132,-0.677647,-0.694294,-0.829755,-0.864164,-1.052455,-1.167929,-1.346902,-1.462894,-1.535866,-1.696981,-1.672644,-1.509213,-1.556840,-1.198841,-0.930187,-0.732460,-0.484380,-0.397123,-0.154968,-0.202751,-0.164719,0.017957,-0.157903,0.052372,-0.088100,-0.099056,-0.029900,-0.093322,0.008949,-0.108448,-0.080122,0.005775,-0.140625,-0.062916,-0.262215,-0.200913,-0.135828,-0.316853,-0.156095,-0.249126,-0.250187,-0.167141,-0.279058,-0.115515,-0.199508,-0.043821,-0.064845,-0.070135,-0.009696,-0.097790,-0.039551,0.062404,-0.089358,0.059310,-0.000132,-0.010580,0.036281,0.016729,0.300705,0.109100,0.355364,0.485814,0.366930,0.583183,0.591112,0.607882,0.566502,0.431972,0.464867,0.325947,0.372206,0.352197,0.247718,0.256534,0.176002,0.276031,0.313099,0.165062,0.316305,0.160194,0.287799,0.215726,-0.079976,-0.547766,-0.758216,1.129713,3.333800,5.171117,6.986929,2.175212,-0.826882,0.051757,-0.070665,0.180747,-0.053829,0.138460,0.111657,-0.012881,0.185540,0.119510,0.103055,0.139604,0.129608,0.251233,0.085572,0.239008,0.335572,0.180036,0.292766,0.169585,0.256754,0.281873,0.134791,0.275283,0.201255,0.114961,0.099646,-0.069392,0.039768,-0.212571,-0.197590,-0.314052,-0.565005,-0.504168,-0.802510,-0.877489,-0.890485,-1.127901,-0.925410,-0.988285,-0.619388,-0.414021,-0.113229,0.214858,0.338801,0.499098,0.730861,0.578755,0.840729,0.635696,0.794752,0.679249,0.733093,0.789036,0.810463,0.547530,0.836317,0.392321,1.057877,0.046190,0.000000,0.000000,0.000000,0.000000,0.000000,0.000000,0.000000,1.000000
3.738861,4.327466,-0.730898,-0.446118,-0.457735,-0.171476,-0.353781,-0.266023,-0.237012,-0.273406,-0.317339,-0.124618,-0.320482,-0.164956,-0.288726,-0.117282,-0.222915,-0.212506,-0.073324,-0.115869,-0.166832,-0.099249,-0.221258,-0.041870,-0.210583,-0.151670,-0.122475,-0.215779,-0.233131,-0.328250,-0.354342,-0.362676,-0.562709,-0.466475,-0.752708,-0.744471,-0.851017,-1.067056,-1.009581,-1.192888,-1.175010,-1.105574,-1.030946,-0.705153,-0.587082,-0.252068,-0.094977,-0.011901,0.213960,0.187567,0.245893,0.301014,0.209079,0.319066,0.198115,0.309065,0.347031,0.185642,0.257818,0.152863,0.241935,0.229951,0.068313,0.218901,0.044583,0.113952,0.130189,0.018692,0.110100,0.024709,0.001686,0.052711,-0.032002,0.091696,-0.086630,0.063397,0.149149,0.017303,0.184315,0.052877,0.088172,0.149005,0.109890,0.154015,0.063672,0.194340,0.185064,0.013627,0.165554,0.055426,0.202149,0.229240,0.208819,0.447174,0.340288,0.369063,0.564267,0.460151,0.536522,0.425284,0.357357,0.318188,0.215598,0.260507,0.088692,0.136769,0.178373,0.008427,0.208565,0.095380,0.133007,0.054279,-0.193113,-0.609916,-0.991134,0.448710,2.292178,3.037030,4.402239,5.462848,6.480189,2.159295,-0.430013,0.116617,-0.202312,-0.127786,-0.266630,-0.255369,-0.208530,-0.288000,-0.255289,-0.224551,-0.369637,-0.173391,-0.254981,-0.270179,-0.267262,-0.313206,-0.184150,-0.291678,-0.275914,-0.265799,-0.320192,-0.306198,-0.332719,-0.333947,-0.413106,-0.541132,-0.437367,-0.704098,-0.616199,-0.736734,-0.927887,-0.901625,-1.076566,-1.202391,-1.242635,-1.363899,-1.260454,-1.389790,-1.108470,-1.009297,-0.831108,-0.509846,-0.370450,-0.269855,-0.208879,-0.209516,0.080131,-0.022963,0.116921,0.074637,0.084485,0.051093,0.065546,-0.015357,0.110226,-0.128028,0.223821,-0.237011,0.336860,-0.490197,0.000000,0.000000,0.000000,0.000000,0.000000,1.000000
5.503514,6.183693,-0.067056,0.407429,-0.013493,0.199996,-0.111243,0.032454,-0.113554,0.062214,-0.197374,0.106307,-0.230150,0.016105,-0.036417,-0.040539,-0.088675,-0.078121,-0.062294,0.021480,-0.159716,0.005206,-0.159990,-0.070899,-0.165455,-0.109542,-0.205017,-0.335011,-0.307093,-0.419405,-0.581058,-0.449324,-0.845713,-0.743765,-0.954082,-1.081795,-1.186717,-1.271970,-1.261822,-1.280754,-1.197582,-0.859308,-0.864196,-0.369645,-0.263036,-0.052908,-0.041729,0.014981,0.221414,0.310545,0.259382,0.428518,0.252917,0.386861,0.242948,0.307357,0.276256,0.220833,0.319389,0.225875,0.257002,0.310458,0.031757,0.259343,0.078932,0.048614,0.136907,0.076800,0.118795,0.038921,0.126300,0.169293,-0.023827,0.284960,0.075494,0.109829,0.207707,0.155301,0.285898,0.253713,0.266515,0.298972,0.212798,0.343172,0.138468,0.330223,0.313411,0.348814,0.558599,0.513822,0.509035,0.565300,0.432081,0.773241,0.617190,0.683383,0.636852,0.512900,0.519772,0.316904,0.276752,0.256865,0.149366,0.325215,0.191341,0.199635,0.139399,0.158814,0.112347,-0.188752,-0.667463,-1.053273,0.021771,2.168975,3.528107,5.837443,2.954298,-0.824791,-0.176117,-0.281622,-0.186516,-0.207691,-0.265700,-0.248780,-0.364954,-0.295958,-0.318528,-0.200149,-0.170685,-0.382681,-0.213208,-0.239619,-0.293633,-0.206921,-0.322965,-0.292735,-0.262412,-0.252538,-0.207108,-0.305071,-0.246949,-0.273352,-0.352311,-0.347400,-0.552104,-0.354537,-0.668548,-0.610782,-0.618096,-0.851176,-0.920380,-0.960720,-1.149481,-1.131859,-1.423635,-1.246741,-1.509899,-1.343013,-1.117878,-1.042284,-0.623097,-0.430368,-0.397626,-0.165060,-0.255088,0.031319,-0.125242,0.005024,-0.082360,0.055598,-0.069231,0.086125,-0.146665,0.144270,-0.363033,0.440197,-0.896953,0.000000,0.000000,0.000000,0.000000,0.000000,0.000000,0.000000,0.000000,0.000000,0.000000,1.000000
5.449202,5.587039,-0.589124,0.196716,-0.041156,0.235422,0.057928,0.154486,0.006894,0.046872,-0.076935,0.090468,0.013375,0.291925,-0.121557,0.133342,0.077787,0.067693,0.077848,0.079418,-0.046137,0.122204,0.016231,0.181793,0.001567,0.088927,0.061529,-0.018692,-0.022865,-0.233254,-0.114205,-0.262965,-0.468797,-0.258172,-0.617001,-0.687536,-0.762771,-0.932312,-0.988155,-1.218738,-1.227399,-1.258378,-1.436868,-0.923639,-1.000040,-0.481625,-0.192490,-0.107413,0.094818,0.128746,0.273382,0.367984,0.257928,0.393371,0.325815,0.418170,0.366041,0.356622,0.385489,0.224789,0.428010,0.260391,0.121568,0.315144,0.081385,0.096649,0.076422,0.068454,0.215472,-0.054538,0.076432,0.067159,-0.061427,0.099493,-0.099260,0.034030,0.024858,-0.057689,0.065058,-0.021470,0.205010,0.008933,-0.073256,0.095667,0.004274,0.060704,0.074548,0.008873,0.144438,0.119070,0.351560,0.195372,0.156875,0.554218,0.485219,0.602730,0.463706,0.351864,0.333046,-0.037128,0.182435,-0.031543,-0.110095,0.007651,0.001351,-0.017495,-0.091116,-0.101728,0.131175,-0.094360,0.019316,-0.237133,-0.421102,-0.939455,-1.188209,0.322152,2.267500,3.791089,6.605367,2.345599,-1.732135,-0.713309,-0.622611,-0.427818,-0.567307,-0.316700,-0.427504,-0.388034,-0.206497,-0.374818,-0.239286,-0.333459,-0.328803,-0.242518,-0.387565,-0.163337,-0.364626,-0.355565,-0.140869,-0.265985,-0.128634,-0.352193,-0.397857,-0.162835,-0.261626,-0.291252,-0.354513,-0.351139,-0.254983,-0.560079,-0.442186,-0.663763,-0.709601,-0.742350,-1.025372,-1.049904,-1.292360,-1.373442,-1.354672,-1.625624,-1.294923,-1.358392,-1.004906,-0.700715,-0.482122,-0.258508,0.072236,0.145891,0.463590,0.179042,0.662939,0.417927,0.717699,0.593168,0.558801,0.516808,0.740148,0.247776,1.016168,-0.066352,0.000000,0.000000,0.000000,0.000000,0.000000,0.000000,0.000000,1.000000
3.456014,3.692068,-1.340990,-1.000946,-0.835103,-0.552924,-0.752686,-0.523523,-0.589270,-0.574829,-0.484479,-0.470442,-0.548533,-0.419683,-0.610546,-0.390775,-0.599105,-0.407390,-0.495282,-0.571329,-0.420568,-0.420060,-0.428772,-0.417169,-0.648680,-0.399150,-0.455672,-0.471980,-0.531767,-0.549778,-0.467419,-0.615231,-0.675237,-0.667339,-0.877324,-0.765858,-1.038197,-1.058202,-1.212857,-1.345853,-1.296532,-1.495856,-1.377832,-1.279717,-1.200459,-0.837092,-0.718404,-0.514400,-0.283503,-0.169004,0.042377,-0.052243,0.100191,0.197466,0.134646,0.342003,0.093441,0.205108,0.229900,0.096980,0.237367,0.194747,0.233519,0.236785,0.154700,0.258660,0.043842,0.189427,0.106198,0.045937,0.151929,0.033375,0.052574,0.053638,0.025198,0.109203,-0.045792,0.080126,0.104739,0.089961,0.144382,0.081609,0.161096,0.137882,0.080437,0.202836,0.098612,0.219717,0.207548,0.108525,0.213076,0.111310,0.200818,0.203316,0.287355,0.491257,0.429887,0.424124,0.463645,0.601284,0.669865,0.556691,0.638670,0.457511,0.359725,0.405348,0.246930,0.313577,0.252252,0.256601,0.286267,0.131180,0.358998,0.262535,0.228249,-0.028475,-0.604258,-0.913109,0.415194,2.100480,3.473831,4.840573,7.073673,4.435012,-0.078553,0.185995,-0.026141,0.143822,-0.058172,-0.002640,0.029191,-0.051725,-0.025154,0.009753,-0.030230,0.042731,-0.060135,0.005888,-0.056556,-0.003109,0.124536,-0.023536,0.032897,-0.040690,0.015368,0.001961,-0.114432,-0.009957,-0.083022,-0.117144,-0.086398,-0.276635,-0.167727,-0.394454,-0.395659,-0.449609,-0.693615,-0.633191,-0.804106,-0.944809,-0.961403,-1.136485,-1.016665,-1.107980,-0.984617,-0.851686,-0.740311,-0.546402,-0.425344,-0.166871,0.119757,0.110561,0.408737,0.335635,0.406106,0.461218,0.437527,0.364507,0.434039,0.360890,0.597595,0.178745,0.651246,-0.065907,0.000000,0.000000,0.000000,1.000000
4.817898,6.363787,0.311938,-0.027818,-0.205761,-0.006489,-0.212027,-0.169308,-0.174492,-0.154889,-0.265919,-0.107340,-0.248709,-0.094776,-0.239538,-0.160022,-0.221281,-0.199308,-0.072980,-0.128761,-0.190196,-0.147948,-0.225239,-0.099104,-0.306391,-0.184910,-0.235096,-0.285795,-0.256016,-0.391564,-0.396713,-0.447589,-0.649054,-0.523780,-0.866799,-0.802571,-0.933376,-1.096050,-1.142148,-1.267504,-1.271261,-1.224853,-1.275993,-1.019485,-1.010214,-0.743828,-0.672500,-0.415934,-0.126599,-0.040681,0.119873,0.264543,0.143733,0.350289,0.237972,0.259109,0.210117,0.245580,0.340729,0.202368,0.217909,0.233911,0.139822,0.233483,0.047633,0.195635,0.149216,0.049504,0.133239,0.020385,0.154035,0.017578,-0.078097,0.049966,-0.120711,0.034555,0.021591,-0.070314,0.000291,-0.086900,0.024811,-0.004200,0.020444,0.125282,0.006117,0.133076,0.143763,0.074719,0.143611,0.057180,0.195528,0.053401,0.017923,0.178456,0.161020,0.310352,0.331816,0.353252,0.429130,0.453288,0.616947,0.521439,0.397873,0.433280,0.332606,0.291984,0.248188,0.133501,0.216544,0.077782,0.170726,0.082856,0.183645,0.188571,0.045773,0.138294,-0.142143,-0.619417,-0.902120,0.038308,2.531002,4.164360,6.498614,3.872056,-0.443392,-0.052154,-0.231314,-0.104138,-0.170923,-0.278864,-0.145974,-0.154311,-0.232159,-0.112748,-0.252101,-0.120273,-0.247151,-0.154279,-0.102531,-0.243809,-0.147633,-0.197104,-0.139752,-0.094800,-0.200477,-0.049863,-0.213901,-0.222811,-0.149273,-0.336588,-0.252249,-0.376911,-0.312937,-0.347159,-0.549949,-0.562771,-0.663540,-0.786714,-0.801983,-0.989499,-0.957971,-1.190156,-1.145371,-1.227518,-1.254722,-1.038499,-0.892246,-0.643455,-0.409397,-0.260127,0.086780,-0.029770,0.295470,0.207630,0.213609,0.251583,0.273046,0.195054,0.322712,0.077580,0.425897,0.037294,0.523534,-0.420614,0.000000,0.000000,0.000000,1.000000
5.086810,6.830347,0.258520,0.089470,-0.048967,0.123365,0.009061,-0.009106,-0.075442,0.164428,-0.126092,0.150515,-0.091765,0.095515,-0.045223,0.017777,0.098200,0.007313,-0.019516,0.070903,-0.025283,0.178950,-0.037930,0.159122,0.032850,-0.051586,0.051118,-0.093098,-0.118705,-0.120967,-0.213542,-0.080855,-0.384146,-0.387577,-0.499957,-0.625220,-0.681669,-0.824112,-0.890164,-1.008026,-1.151452,-1.062860,-1.271968,-0.977505,-0.868168,-0.568750,-0.317604,-0.125267,0.219236,0.253202,0.390942,0.586687,0.363801,0.568231,0.469588,0.510661,0.505519,0.434582,0.509952,0.516719,0.467528,0.420843,0.301085,0.445870,0.265077,0.222103,0.356561,0.220765,0.254429,0.219678,0.242949,0.305368,0.090222,0.240204,0.134753,0.141175,0.288000,0.150107,0.238575,0.197990,0.235688,0.312716,0.116892,0.269763,0.244554,0.269986,0.362826,0.173091,0.333732,0.272613,0.249987,0.290019,0.107481,0.292440,0.334562,0.419249,0.480848,0.417131,0.679956,0.565311,0.682754,0.783883,0.609421,0.695955,0.520075,0.397738,0.513895,0.273001,0.271862,0.121049,0.095339,0.125252,-0.022920,0.125807,0.048557,0.029603,0.109898,-0.085575,-0.257695,-0.826278,-1.176139,-0.117259,1.809163,3.340556,5.594207,3.541899,-0.935429,-0.688367,-0.360770,-0.433670,-0.389495,-0.360748,-0.466744,-0.219483,-0.353870,-0.335392,-0.335618,-0.469850,-0.307761,-0.448293,-0.399297,-0.286224,-0.353792,-0.262180,-0.452740,-0.291847,-0.360963,-0.548431,-0.310425,-0.421086,-0.409822,-0.392382,-0.445861,-0.427768,-0.491559,-0.464614,-0.470002,-0.618432,-0.647860,-0.841757,-0.833749,-0.922393,-1.151263,-1.095948,-1.345524,-1.461775,-1.423291,-1.504106,-1.346765,-1.572699,-1.234716,-1.154717,-0.980593,-0.624921,-0.435843,-0.397371,-0.252928,-0.452848,0.031917,-0.332884,-0.029331,-0.333152,0.018209,-0.298620,0.115590,-0.764784,0.000000,1.000000
3.340694,2.944733,-1.521208,-1.115510,-0.842670,-0.366696,-0.696747,-0.487559,-0.640172,-0.485654,-0.601528,-0.549548,-0.538887,-0.476086,-0.511743,-0.347298,-0.566755,-0.351735,-0.459621,-0.381159,-0.390857,-0.361831,-0.389318,-0.369518,-0.413731,-0.313585,-0.493645,-0.294872,-0.513782,-0.480081,-0.407519,-0.538659,-0.502374,-0.695334,-0.817734,-0.779512,-1.104664,-1.034897,-1.183100,-1.290601,-1.183534,-1.196493,-1.032377,-0.942918,-0.714953,-0.415079,-0.322740,-0.015001,0.006112,0.135231,0.224848,0.140424,0.223016,0.191291,0.206665,0.265892,0.123930,0.280118,0.141514,0.095785,0.176959,0.109217,0.166102,0.098826,0.116801,0.200266,-0.018299,0.084672,-0.002143,0.095244,0.028194,-0.028580,0.107272,0.001400,0.023840,0.098858,0.010129,0.156581,0.099300,0.199487,0.143686,0.126044,0.255160,0.160055,0.182033,0.240931,0.087174,0.282628,0.183594,0.201924,0.157007,0.194508,0.350149,0.300682,0.384778,0.564401,0.401724,0.634048,0.591789,0.632770,0.626781,0.571778,0.550549,0.443875,0.391283,0.388463,0.254285,0.335286,0.202914,0.366712,0.303396,0.209399,0.245116,0.240342,0.022439,-0.174104,-0.851485,-0.159092,1.747973,3.907454,5.695521,7.096977,4.278722,-0.214624,-0.212743,-0.066340,-0.118648,-0.107234,-0.226579,-0.251885,-0.150527,-0.302272,-0.187145,-0.200546,-0.216437,-0.170745,-0.178257,-0.125463,-0.237728,-0.126335,-0.120397,-0.199321,-0.093983,-0.185399,-0.188858,-0.179668,-0.239573,-0.213806,-0.403774,-0.245456,-0.326611,-0.405841,-0.466460,-0.601132,-0.646884,-0.751902,-0.950699,-0.889898,-1.129620,-1.018442,-1.107761,-1.113653,-0.962159,-0.808560,-0.570689,-0.249810,-0.137022,0.155688,0.115655,0.360812,0.247722,0.301959,0.339026,0.298024,0.288111,0.409934,0.212572,0.417739,0.080911,0.345934,-0.048020,0.361485,-0.261430,0.000000,0.000000,0.000000,0.000000,1.000000
5.135690,6.886294,0.742396,-0.406819,-0.214519,-0.098085,-0.259999,-0.163329,-0.436966,-0.167482,-0.391334,-0.281145,-0.287843,-0.272047,-0.289542,-0.228190,-0.239382,-0.239487,-0.307614,-0.119137,-0.308622,-0.171030,-0.233215,-0.270025,-0.253363,-0.300908,-0.291255,-0.416052,-0.430993,-0.313153,-0.514098,-0.493388,-0.673815,-0.727063,-0.801916,-1.013767,-1.031249,-1.146790,-1.243448,-1.137071,-1.313351,-1.119420,-1.010253,-0.772525,-0.452501,-0.252048,-0.021251,0.099090,0.179090,0.314757,0.154101,0.340493,0.235127,0.244930,0.326774,0.243092,0.277714,0.199099,0.121428,0.143441,0.000346,0.148362,-0.022658,0.044347,0.089085,-0.064176,0.013513,0.009276,-0.051682,0.025652,-0.099466,0.055460,-0.014369,-0.118552,0.082571,-0.108374,0.010554,0.003579,-0.000854,0.100565,0.028377,0.137085,0.094764,0.089808,0.232344,0.038481,0.145508,0.109266,0.132628,0.275219,0.254324,0.477427,0.351459,0.452649,0.658884,0.463397,0.583690,0.355690,0.255180,0.287431,0.175330,0.281308,0.105125,0.048884,0.137085,0.013285,0.134020,0.032331,0.042158,0.060521,-0.238626,-0.601153,-1.075024,-0.180329,2.248312,3.696535,6.061852,3.410378,-0.552006,-0.049755,-0.179152,0.000727,-0.247300,-0.103993,-0.123210,-0.195430,-0.085091,-0.183698,-0.179606,-0.071084,-0.260565,-0.059068,-0.172706,-0.145120,-0.090208,-0.137556,-0.009513,-0.147302,-0.125303,-0.085286,-0.220038,-0.062330,-0.179476,-0.242676,-0.218674,-0.360072,-0.357102,-0.507486,-0.549543,-0.626063,-0.873697,-0.797788,-1.015988,-1.074835,-1.015549,-1.248018,-1.023868,-1.071496,-0.770855,-0.521146,-0.403759,-0.139003,-0.127440,0.031982,0.258935,0.132209,0.354905,0.096887,0.249223,0.219947,0.217302,0.172248,0.270027,0.054904,0.302898,-0.147468,0.480884,-0.492567,0.000000,0.000000,0.000000,0.000000,0.000000,0.000000,0.000000,0.000000,0.000000,1.000000
4.955284,7.188169,0.337782,-0.012305,-0.015913,0.248477,-0.033039,0.053394,0.076200,0.039879,0.016752,0.137880,-0.117552,0.206633,-0.094218,0.097280,0.068873,0.015678,0.100836,0.077590,0.138772,0.166161,-0.025351,0.192239,-0.055557,0.109036,0.071501,-0.065246,-0.045927,-0.140867,-0.243072,-0.285825,-0.496879,-0.430983,-0.805993,-0.771951,-0.903076,-1.135040,-0.993950,-1.243220,-1.158003,-1.033820,-0.942627,-0.432285,-0.383702,-0.013188,0.067393,0.156846,0.503649,0.423259,0.572000,0.497322,0.384703,0.594666,0.435498,0.490371,0.500856,0.401523,0.468458,0.287796,0.414619,0.365553,0.303369,0.379275,0.217197,0.284204,0.224183,0.130335,0.305174,0.189375,0.153473,0.186633,0.150934,0.242864,0.069948,0.270827,0.058080,-0.072318,0.106914,0.131689,0.199063,0.136949,0.183039,0.197762,0.070404,0.240350,0.202240,0.003576,0.174008,0.094704,0.237015,0.139203,0.313639,0.518698,0.389703,0.509721,0.551952,0.508098,0.650639,0.378083,0.342666,0.250365,0.176302,0.186928,-0.025015,0.045868,-0.016940,-0.129240,0.075678,-0.002908,0.073485,-0.098024,-0.033602,-0.181030,-0.616597,-1.186996,-1.248584,0.134381,2.067509,3.512502,5.936288,2.134573,-1.551110,-0.418775,-0.461752,-0.333361,-0.420738,-0.325673,-0.370368,-0.489020,-0.225569,-0.299000,-0.380889,-0.248881,-0.367445,-0.245854,-0.413156,-0.387478,-0.353602,-0.428275,-0.184489,-0.292770,-0.290564,-0.152215,-0.329595,-0.383213,-0.461044,-0.473745,-0.331052,-0.515063,-0.485833,-0.673616,-0.565813,-0.762561,-0.976814,-0.867534,-1.085726,-1.237323,-1.224093,-1.519135,-1.381837,-1.547500,-1.352914,-1.171650,-0.995184,-0.614553,-0.422651,-0.201253,-0.023692,-0.172944,0.081923,-0.105720,0.041734,0.014303,0.075428,-0.123960,-0.051792,-0.176261,0.157905,-0.435941,0.333082,-0.805331,0.000000,0.000000,0.000000,0.000000,0.000000,1.000000
4.994550,5.153258,-1.131353,-0.398173,-0.207067,-0.020977,-0.174631,-0.025827,-0.091325,-0.162140,-0.082978,0.130502,-0.186848,0.092145,-0.113365,0.060001,-0.098966,-0.121519,-0.071299,-0.136369,0.015291,0.099847,-0.084473,0.176529,-0.009708,-0.077213,-0.168729,-0.215367,-0.072825,-0.174882,-0.243577,-0.337708,-0.380821,-0.370927,-0.778149,-0.615909,-0.804404,-1.014207,-1.007086,-1.263559,-1.264164,-1.283805,-1.299560,-0.938876,-0.894533,-0.407283,-0.216042,0.051861,0.263101,0.168040,0.318652,0.301791,0.254772,0.410003,0.331701,0.293287,0.172967,0.206340,0.358757,0.083957,0.287152,0.167890,0.046105,0.136631,-0.056010,0.056878,-0.019031,0.044404,0.140383,-0.116633,0.159678,0.029137,-0.278271,-0.033600,-0.240092,-0.080088,-0.235859,-0.159816,0.043515,-0.114422,-0.030663,-0.064403,-0.070886,-0.044541,-0.259019,-0.067666,-0.148479,-0.134508,-0.074630,-0.213563,0.082157,0.011082,0.043663,0.193283,0.259315,0.577781,0.255510,0.218946,0.348288,0.062099,0.063777,-0.078581,-0.045088,-0.050504,-0.188749,-0.078351,-0.290874,-0.117208,-0.141020,-0.300783,-0.118665,-0.357869,-0.486512,-0.929026,-1.450990,0.130453,2.343259,3.774519,6.634581,4.624846,-1.055259,-1.131879,-0.428181,-0.304955,-0.391196,-0.246662,-0.280142,-0.188817,-0.246592,-0.340026,-0.109716,-0.254145,-0.181023,-0.141452,-0.230174,-0.087594,-0.210523,-0.102160,-0.017608,-0.196749,0.067856,-0.035746,-0.016784,-0.006488,-0.020744,0.053012,-0.111438,0.003970,-0.004030,-0.166688,-0.108623,-0.338790,-0.199295,-0.491538,-0.649061,-0.650455,-0.983986,-1.100394,-1.096257,-1.330560,-1.207523,-1.325486,-0.990062,-0.968883,-0.558838,-0.145379,0.032478,0.275351,0.548281,0.535642,0.760215,0.489248,0.850253,0.654567,0.808523,0.630643,0.794023,0.557386,0.883327,0.057482,0.000000,0.000000,0.000000,0.000000,0.000000,0.000000,0.000000,1.000000
5.717174,6.400883,-0.186210,-0.973928,-0.677812,-0.165900,-0.360547,-0.142038,-0.401538,-0.107647,-0.267847,-0.308640,-0.185431,-0.229534,-0.205138,-0.205778,-0.196141,-0.055618,-0.243776,-0.025145,-0.090060,-0.129374,-0.013210,-0.055725,0.071852,-0.053459,-0.189442,-0.067069,-0.219152,-0.188036,-0.260840,-0.314904,-0.331094,-0.549979,-0.511493,-0.589900,-0.886689,-0.854571,-0.993266,-1.023333,-1.085166,-1.198755,-1.109033,-1.310289,-1.037968,-0.996760,-0.930968,-0.635731,-0.490381,-0.064481,0.109871,0.163794,0.411753,0.310694,0.417650,0.443226,0.476755,0.385891,0.369075,0.501360,0.521800,0.327059,0.469288,0.289320,0.356865,0.267786,0.269688,0.367467,0.072735,0.199334,0.218658,0.225433,0.230615,0.019165,0.284205,0.074325,-0.001880,0.221861,0.011301,0.096638,0.075559,0.057917,0.160479,0.007155,0.227042,0.102345,0.094581,0.086508,0.107078,0.139440,0.081972,0.009443,0.232144,-0.033230,0.235177,0.295668,0.339700,0.417367,0.452269,0.548853,0.554179,0.531386,0.674853,0.485438,0.552484,0.274013,0.251880,0.248489,0.077533,0.229721,0.130521,0.014072,0.152507,-0.020104,0.081949,0.063487,0.085905,0.051182,-0.322485,-0.714787,-0.803082,0.835280,2.781929,4.593923,5.801202,0.805901,-1.207005,-0.292868,-0.365808,-0.238715,-0.304599,-0.233649,-0.152946,-0.423606,-0.247961,-0.345448,-0.344108,-0.220251,-0.284300,-0.099803,-0.167902,-0.325147,-0.077408,-0.298660,-0.096198,-0.237361,-0.195089,-0.085846,-0.296321,-0.158357,-0.230475,-0.280603,-0.204095,-0.282964,-0.226204,-0.459835,-0.432307,-0.506539,-0.761725,-0.811423,-0.909004,-1.084551,-1.126922,-1.426196,-1.245188,-1.462524,-1.393875,-1.059217,-0.881322,-0.625021,-0.335300,-0.210399,0.079841,0.072518,0.434762,0.111133,0.160433,0.242571,0.269749,0.257042,0.348631,0.087699,0.469164,-0.158122,0.629901,-0.586965,0.000000,1.000000
4.574206,3.467229,-1.581437,-0.519547,-0.639020,-0.323843,-0.532312,-0.365109,-0.375047,-0.421306,-0.580818,-0.345744,-0.634153,-0.323416,-0.499173,-0.285356,-0.290874,-0.450963,-0.337335,-0.332586,-0.405471,-0.241652,-0.495662,-0.161877,-0.467401,-0.327038,-0.376998,-0.422089,-0.402357,-0.397087,-0.423048,-0.507628,-0.672572,-0.565458,-0.905390,-0.943210,-1.054310,-1.198745,-1.283828,-1.512537,-1.505989,-1.503822,-1.692031,-1.252165,-1.132652,-0.831337,-0.582989,-0.382272,-0.161013,-0.064277,0.172693,0.111234,-0.118553,0.158320,0.038043,0.163163,0.130550,0.028472,0.174919,-0.079935,0.110085,-0.070845,0.009103,0.042100,-0.154846,0.132869,-0.059077,-0.048507,-0.105173,-0.265513,-0.036466,-0.122084,-0.180175,-0.111354,-0.246743,-0.073807,-0.209217,-0.156998,0.009840,-0.231258,-0.058884,-0.061939,-0.133814,0.080846,-0.100819,-0.017077,-0.093018,-0.076337,-0.016760,-0.104090,0.075322,0.101011,0.238811,0.305289,0.295509,0.417045,0.313271,0.338623,0.553177,0.426379,0.450250,0.300176,0.350994,0.261777,0.008254,0.182528,0.035081,0.055334,0.156240,-0.036103,0.148822,-0.009850,0.101029,0.075739,-0.310747,-0.618219,-0.876451,0.913436,3.231277,4.866585,7.264966,2.604127,-1.200887,-0.353900,-0.240541,0.138541,-0.124764,0.036685,-0.065030,-0.008482,0.172358,-0.054425,0.071937,0.239553,0.006848,0.179980,0.079954,0.159825,0.166307,0.103669,0.303288,-0.006204,0.168352,0.224273,0.047390,0.189691,0.127485,0.191857,0.092518,-0.063589,0.036435,-0.124894,-0.050991,-0.260037,-0.373832,-0.414968,-0.657542,-0.758335,-0.830962,-1.088844,-0.974958,-1.223357,-1.020398,-1.060994,-0.727053,-0.363771,-0.131820,0.173425,0.524960,0.506096,0.877447,0.717429,1.048042,0.741383,0.917457,0.902476,0.953072,0.909552,1.015811,0.623383,1.250767,0.303213,0.000000,0.000000,0.000000,0.000000,0.000000,1.000000
3.808818,2.943011,-1.492419,-0.666454,-0.802279,-0.258681,-0.610922,-0.375606,-0.545205,-0.431886,-0.385572,-0.395494,-0.514551,-0.196070,-0.482959,-0.295963,-0.407083,-0.324156,-0.335123,-0.359535,-0.261754,-0.364511,-0.431473,-0.203070,-0.452688,-0.290152,-0.373977,-0.293173,-0.366019,-0.472845,-0.458717,-0.493413,-0.540319,-0.559614,-0.777613,-0.716581,-0.938690,-1.014306,-1.077705,-1.246523,-1.245013,-1.325598,-1.335896,-1.220491,-1.169455,-0.755519,-0.646148,-0.374079,-0.124854,-0.046290,0.121818,0.177084,0.232263,0.276474,0.107318,0.349944,0.188661,0.328510,0.264631,0.168363,0.270260,0.215382,0.213568,0.219756,0.080424,0.241822,0.029304,0.155148,0.164228,0.082112,0.154422,0.059959,0.012799,0.152328,-0.006524,0.105662,-0.000665,0.092142,-0.001204,0.006807,0.078642,-0.025707,0.007210,0.150422,-0.030833,0.135466,-0.011766,0.139666,0.095189,0.059153,0.124952,0.049344,0.099564,0.119144,0.059637,0.166732,0.082409,0.252239,0.333534,0.389732,0.505278,0.476164,0.612539,0.644921,0.541417,0.584832,0.382255,0.482715,0.370370,0.257285,0.210432,0.220318,0.227327,0.265825,0.097469,0.279672,0.029325,0.264475,0.088668,-0.272997,-0.768483,-0.571358,1.384373,3.516992,5.380843,7.669855,4.178710,-0.111681,0.114721,-0.137215,0.055476,-0.238448,-0.093263,-0.149209,-0.142479,-0.065715,-0.238515,-0.100054,-0.142541,-0.199183,-0.013012,-0.164898,-0.064373,-0.116470,-0.115710,-0.082734,-0.189006,-0.056038,-0.129884,-0.247525,-0.138365,-0.319814,-0.376415,-0.361137,-0.501983,-0.538720,-0.673178,-0.659767,-0.896586,-0.948965,-0.994093,-1.144663,-1.114936,-1.084271,-1.143793,-0.862710,-0.892853,-0.473752,-0.415069,-0.221148,0.043311,0.126132,0.239840,0.382520,0.274351,0.488011,0.254603,0.483209,0.257777,0.408587,0.271465,0.247622,0.180904,0.395773,0.062208,0.507391,-0.325864,1.000000
5.338390,6.671542,0.245442,0.051389,-0.345650,0.007880,-0.375024,-0.216627,-0.303071,-0.243531,-0.255619,-0.253432,-0.376303,-0.138990,-0.436550,-0.109951,-0.301787,-0.195747,-0.249006,-0.232348,-0.238889,-0.257893,-0.289060,-0.146666,-0.421647,-0.256327,-0.399962,-0.500692,-0.505468,-0.571798,-0.687875,-0.749910,-0.832644,-0.910079,-1.150747,-1.072705,-1.284343,-1.285917,-1.242547,-1.302797,-1.132033,-1.016568,-0.839542,-0.486989,-0.526910,-0.119632,-0.057539,0.081774,0.219154,0.197259,0.278191,0.263727,0.216049,0.314150,0.129159,0.318011,0.047236,0.132770,0.152282,0.129651,0.126045,0.059564,0.052749,0.065550,-0.070327,0.101340,-0.078188,0.025767,0.025142,-0.071664,-0.014137,-0.018486,-0.014551,0.091452,-0.162633,0.083728,-0.076826,-0.006025,0.025716,-0.044462,0.087715,0.003187,0.063095,0.119232,-0.032767,0.159554,0.038539,0.059950,0.103318,0.082654,0.243799,0.241856,0.356578,0.434126,0.336143,0.682648,0.473591,0.562892,0.511973,0.350814,0.388988,0.259410,0.318570,0.385083,0.167387,0.304780,0.050475,0.239441,0.150291,0.082171,0.192957,0.161342,0.096101,0.045119,-0.591827,-0.932527,0.018132,2.498670,4.415373,6.275875,2.188556,-0.632725,0.062050,-0.032826,-0.081171,-0.041428,-0.100362,-0.153342,-0.033464,-0.125108,-0.026315,-0.090935,-0.000696,0.023353,-0.089318,-0.002330,-0.004355,0.057159,-0.000767,-0.074995,0.085142,-0.091639,-0.048985,-0.018372,-0.193160,-0.054343,-0.307614,-0.345216,-0.266965,-0.485056,-0.554866,-0.725624,-0.732691,-0.872416,-1.022621,-0.903556,-1.100859,-0.990625,-0.990879,-0.938259,-0.775213,-0.739049,-0.640178,-0.318532,-0.290107,0.014301,0.007473,0.175132,0.040333,0.120458,0.135878,0.120016,0.089579,0.216843,-0.114099,0.211205,-0.187514,0.219287,-0.167076,0.275648,-0.654467,0.000000,0.000000,0.000000,0.000000,0.000000,0.000000,1.000000
4.917839,5.753429,-0.137332,0.423841,0.274709,0.488327,0.189865,0.494355,0.097847,0.459994,0.201879,0.426926,0.266452,0.416456,0.390990,0.412025,0.290527,0.483635,0.363359,0.535454,0.253058,0.506493,0.361082,0.329969,0.389760,0.284516,0.250062,0.280966,-0.069068,0.186529,-0.067338,-0.120468,-0.331416,-0.367227,-0.453577,-0.655257,-0.620001,-0.657223,-0.775533,-0.592914,-0.694069,-0.459733,-0.412667,-0.348084,-0.074941,0.101971,0.257384,0.472749,0.479939,0.579303,0.423797,0.613353,0.512383,0.519485,0.607138,0.429878,0.455463,0.455727,0.346887,0.549845,0.341129,0.390388,0.326510,0.318351,0.469860,0.252696,0.202368,0.241691,0.141626,0.286149,0.061049,0.232126,0.149992,0.109303,0.193321,0.089915,0.176312,0.209556,0.031298,0.227472,0.045978,0.165061,0.129978,0.137965,0.124139,0.024419,0.077682,0.152624,0.109254,0.240263,0.101994,0.344904,0.351510,0.268062,0.480397,0.527667,0.507833,0.488305,0.242474,0.281601,-0.034845,0.130890,-0.017552,-0.047339,0.035171,-0.026175,0.008131,-0.100079,-0.261786,-0.087323,-0.220586,-0.277921,-0.720355,-1.276443,-0.488798,1.238843,1.792618,2.564834,4.320265,5.705125,0.808380,-1.504134,-0.572139,-0.585590,-0.438945,-0.663840,-0.390148,-0.606764,-0.587328,-0.333899,-0.534224,-0.456288,-0.506937,-0.537586,-0.405524,-0.541627,-0.469036,-0.529132,-0.466826,-0.287878,-0.549199,-0.425602,-0.476455,-0.458315,-0.484310,-0.747119,-0.674976,-0.715990,-0.812204,-0.686939,-0.900919,-0.957222,-1.176973,-1.199915,-1.375203,-1.537155,-1.496036,-1.670553,-1.827120,-1.529178,-1.704875,-1.298309,-1.202514,-0.846876,-0.669412,-0.562011,-0.487936,-0.275023,-0.359623,-0.223858,-0.396735,-0.109150,-0.415411,-0.214385,-0.359885,-0.306687,-0.553079,-0.128137,-0.700489,0.044006,-1.107458,0.000000,0.000000,0.000000,0.000000,0.000000,0.000000,1.000000
5.130731,4.464946,-1.291639,-0.251909,-0.345906,0.117903,-0.315332,0.010986,-0.119965,-0.204295,-0.028779,0.054275,-0.173725,0.048650,-0.220569,0.050510,-0.110487,-0.057846,-0.088554,-0.101318,0.092979,0.023445,-0.134478,0.052561,-0.123629,0.042409,-0.272236,-0.313355,-0.266034,-0.400269,-0.335101,-0.376207,-0.577266,-0.672331,-0.874666,-0.880496,-1.179010,-1.172242,-1.214443,-1.520854,-1.318321,-1.293816,-1.216701,-0.825923,-0.710647,-0.279807,-0.229695,-0.100910,0.058705,0.129397,0.148609,0.119265,0.178343,0.229566,0.045283,0.219228,0.076225,-0.021351,0.101236,0.041653,0.024383,0.083987,-0.046466,0.013572,-0.120888,0.064474,-0.087253,-0.198440,-0.043619,-0.185116,-0.154215,-0.116112,-0.202419,-0.106452,-0.228277,0.006643,-0.071713,-0.085374,-0.016023,-0.097335,-0.003349,-0.026049,-0.138772,0.035735,-0.192921,-0.091773,-0.187857,-0.018312,-0.035164,-0.124934,0.022134,0.014748,-0.009923,0.278115,0.172487,0.436466,0.312055,0.422203,0.578480,0.478840,0.584806,0.444309,0.231173,0.445545,0.192914,0.267595,0.065460,0.191347,0.231187,0.138846,0.139275,0.164684,0.180591,0.244111,-0.016476,0.210957,0.081062,-0.264880,-0.773261,-0.675276,1.444037,3.306368,5.330068,6.971237,1.775903,-1.118382,-0.213747,-0.224531,-0.002928,-0.205998,-0.014775,-0.184188,-0.175312,-0.055272,-0.179589,-0.051298,-0.090527,-0.089388,0.055363,-0.102841,-0.069178,-0.071125,-0.060635,-0.024110,-0.120776,0.047298,-0.120742,-0.035240,0.021883,-0.159668,-0.057311,-0.115826,-0.227951,-0.195291,-0.412181,-0.361364,-0.574901,-0.738267,-0.803093,-0.998697,-1.040945,-1.086932,-1.359173,-1.239035,-1.340554,-1.042309,-1.170188,-1.076267,-0.810277,-0.650003,-0.274068,-0.097172,0.129651,0.449389,0.299360,0.655745,0.488961,0.605718,0.484761,0.660532,0.415055,0.652716,0.300532,0.905160,-0.214004,0.000000,0.000000,1.000000
5.869286,5.358305,-0.924214,0.024267,-0.358550,-0.001057,-0.353237,-0.146154,-0.276466,-0.127094,-0.293951,0.004413,-0.324636,-0.108476,-0.147069,-0.018579,-0.128744,-0.168383,-0.151083,0.058756,-0.340034,0.024087,-0.169022,-0.098041,-0.246206,-0.204268,-0.101787,-0.262693,-0.310435,-0.205472,-0.365737,-0.185708,-0.484291,-0.466942,-0.500997,-0.730508,-0.753765,-0.900661,-0.979671,-1.025609,-1.309153,-1.174983,-1.457655,-1.349282,-1.277497,-1.246479,-0.980651,-0.797296,-0.456653,-0.220403,-0.216537,0.225890,0.046909,0.214885,0.206355,0.148262,0.172287,0.165571,0.160433,0.174739,0.092570,0.237474,0.017020,0.119988,0.187274,0.189111,0.272151,0.057441,0.197715,0.188062,0.083451,0.277328,0.051599,0.206325,0.082763,0.099710,0.187169,0.118009,0.178461,0.207396,-0.018273,0.334145,0.160614,0.239479,0.122213,0.020219,0.149248,0.128483,0.173920,0.118230,0.037998,0.183866,-0.046353,0.231091,0.178641,0.057649,0.388046,0.373905,0.415758,0.531940,0.521791,0.656497,0.353771,0.406439,0.245162,0.201424,0.278338,0.057274,0.087983,0.110568,-0.063682,0.224168,-0.004866,0.256566,0.193680,0.048881,-0.007982,-0.171597,-0.521860,-0.985865,-0.036691,2.443319,3.770565,6.704672,2.506278,-1.456834,-0.352202,-0.324932,-0.127088,-0.321122,-0.277990,-0.183209,-0.431265,-0.204330,-0.099584,-0.267593,-0.085199,-0.208641,-0.060138,-0.061792,-0.082535,0.004837,-0.087778,-0.005635,-0.060929,-0.184023,-0.050348,-0.171149,-0.090652,-0.172057,-0.179207,-0.071478,-0.326840,-0.248824,-0.365982,-0.520939,-0.602424,-0.782313,-0.916117,-1.076292,-1.223320,-1.168510,-1.526858,-1.340048,-1.422203,-1.259786,-0.972644,-0.591678,-0.312047,-0.087754,-0.130795,0.404181,0.156739,0.517274,0.348278,0.591162,0.456275,0.487057,0.412019,0.545667,0.306411,0.832435,0.167523,0.919468,-0.271232,0.000000,0.000000,1.000000
3.576743,3.736914,-1.396060,-0.988265,-0.811897,-0.566602,-0.742779,-0.704557,-0.688389,-0.711340,-0.834943,-0.473914,-0.753099,-0.547448,-0.665000,-0.562239,-0.546321,-0.538501,-0.531492,-0.495832,-0.570850,-0.449920,-0.667924,-0.529236,-0.611080,-0.582204,-0.592059,-0.657906,-0.557330,-0.662408,-0.754676,-0.695355,-0.900242,-0.926973,-1.075099,-1.190390,-1.299708,-1.468026,-1.426351,-1.618826,-1.680472,-1.576664,-1.625976,-1.364964,-1.109569,-0.832015,-0.598799,-0.624341,-0.326256,-0.241688,-0.247563,-0.076147,-0.167034,0.014230,-0.168103,-0.092539,-0.102999,-0.165193,-0.000547,-0.062539,-0.113015,-0.080701,-0.155659,-0.031227,-0.126977,0.005368,0.023386,-0.133185,-0.026750,-0.103129,-0.125665,-0.005502,-0.088633,0.058558,-0.016932,-0.011691,0.032355,0.005400,0.132907,0.120538,0.048025,0.193054,0.104827,0.209399,0.097599,0.219070,0.172907,0.142435,0.282035,0.189786,0.255823,0.508441,0.438193,0.577666,0.496883,0.683551,0.832753,0.724904,0.835554,0.656959,0.549610,0.592884,0.395939,0.445292,0.365035,0.379032,0.384268,0.316027,0.422611,0.313115,0.249402,0.120722,-0.608091,-0.575382,0.984548,3.162255,4.923791,6.785340,2.952382,-1.277064,-0.496262,-0.178447,-0.062689,0.148757,-0.020319,0.008055,0.029762,-0.018123,0.182360,0.094760,0.089493,0.160454,0.101302,0.177910,0.167653,0.293109,0.230744,0.185818,0.304079,0.225516,0.221711,0.299767,0.118858,0.190321,0.155348,0.134956,0.082674,-0.067255,-0.024417,-0.289735,-0.340244,-0.340386,-0.696335,-0.553618,-0.772478,-0.756272,-0.834028,-0.919120,-0.690170,-0.634832,-0.464218,-0.076050,-0.074156,0.351813,0.392415,0.632693,0.594598,0.654786,0.776139,0.717158,0.668123,0.813549,0.597806,0.879388,0.566039,0.866941,0.610823,0.853734,0.349476,0.000000,0.000000,0.000000,0.000000,0.000000,0.000000,0.000000,0.000000,1.000000
4.089973,5.012787,-0.934454,-1.417863,-0.823474,-0.633702,-0.531302,-0.427092,-0.663586,-0.442385,-0.647477,-0.401456,-0.450302,-0.465644,-0.443319,-0.416207,-0.447887,-0.363401,-0.359487,-0.253160,-0.428704,-0.266941,-0.325470,-0.350676,-0.290311,-0.366329,-0.443311,-0.348579,-0.467457,-0.409245,-0.623926,-0.562241,-0.751353,-0.909226,-0.833973,-1.149346,-1.145879,-1.196273,-1.342144,-1.277017,-1.479096,-1.259341,-1.178315,-1.078455,-0.702987,-0.633152,-0.344757,-0.148400,-0.049783,0.082162,-0.010167,0.213001,0.117876,0.100473,0.182822,0.076936,0.189816,0.113046,0.111896,0.213972,0.036319,0.153013,0.091296,0.029399,0.098970,0.009911,0.092851,0.018642,0.057414,0.111556,-0.056416,0.100462,0.053572,-0.016617,0.127445,-0.039139,0.119629,0.067776,0.121865,0.194807,0.060435,0.266245,0.195347,0.220651,0.330633,0.215264,0.346550,0.242256,0.318375,0.277428,0.236254,0.463955,0.398199,0.527649,0.636965,0.551451,0.694791,0.634999,0.775260,0.745045,0.711880,0.782696,0.538146,0.564206,0.464120,0.327670,0.480339,0.285842,0.282436,0.334828,0.223338,0.291229,0.249519,0.272315,0.049067,-0.526008,-0.681241,0.292489,2.740648,4.562582,6.579227,4.324639,-0.024028,-0.033832,-0.023595,0.071230,0.040846,-0.110855,-0.120050,-0.044125,-0.139868,-0.001859,-0.159384,-0.014441,-0.117295,-0.103807,0.021413,-0.083551,-0.020043,-0.033955,-0.028047,0.011048,-0.144729,-0.029439,-0.011967,-0.194384,-0.082296,-0.200059,-0.206612,-0.257641,-0.378991,-0.335710,-0.535990,-0.501961,-0.656665,-0.852179,-0.786169,-0.992451,-0.967043,-1.140185,-1.200964,-1.051763,-1.192313,-0.966283,-0.744112,-0.675140,-0.347448,-0.306761,0.022692,0.015031,0.174192,0.244370,0.305176,0.227244,0.319525,0.254589,0.450254,0.137158,0.504071,0.038876,0.476411,-0.166315,0.000000,0.000000,0.000000,0.000000,0.000000,1.000000
5.005367,6.400238,0.310827,0.144947,-0.034445,0.269876,0.077332,0.112882,-0.136536,0.148662,-0.122494,0.157210,-0.094887,0.096125,-0.012748,-0.010537,0.086780,0.078477,0.016191,0.130313,0.013714,0.172285,-0.050186,0.044295,0.106704,-0.048082,-0.051643,-0.018561,-0.182125,-0.085785,-0.337023,-0.218848,-0.443176,-0.449703,-0.530843,-0.786883,-0.777796,-0.879969,-1.006705,-1.010257,-1.277555,-1.041960,-1.171152,-1.081344,-0.756526,-0.693101,-0.396775,-0.240754,-0.027648,0.179140,0.175631,0.390564,0.398627,0.406155,0.400759,0.413401,0.524879,0.409246,0.442818,0.469478,0.261626,0.474067,0.282277,0.223503,0.363106,0.236925,0.316932,0.172027,0.272506,0.323975,0.140451,0.227459,0.125936,0.284172,0.237171,0.169371,0.304409,0.167838,0.167824,0.254347,0.162189,0.288622,0.236003,0.256660,0.329895,0.181044,0.369836,0.227584,0.266124,0.343349,0.233455,0.339188,0.310552,0.343947,0.419371,0.353951,0.644898,0.553328,0.643804,0.813675,0.585879,0.733437,0.643561,0.638395,0.622064,0.430438,0.533660,0.366557,0.372230,0.253249,0.195033,0.213480,0.271370,0.224405,0.296719,-0.004833,-0.155016,-0.789787,-1.008442,0.484964,2.494343,4.445344,5.693567,1.279090,-0.727981,-0.164095,-0.145659,-0.203119,-0.300769,-0.242252,-0.287405,-0.112727,-0.360066,-0.287000,-0.246770,-0.326403,-0.231667,-0.340840,-0.327530,-0.326382,-0.337840,-0.243987,-0.383475,-0.402647,-0.298034,-0.384398,-0.266400,-0.466866,-0.478449,-0.548280,-0.614584,-0.649102,-0.762594,-0.750897,-0.900265,-1.145561,-1.003021,-1.267110,-1.228303,-1.354264,-1.389944,-1.387603,-1.487149,-1.547089,-1.333483,-1.292749,-0.959783,-0.953513,-0.539191,-0.447333,-0.353503,-0.322994,-0.259441,-0.300644,-0.114904,-0.415925,-0.187875,-0.502780,-0.117170,-0.540426,-0.183727,-0.655453,-0.154464,-1.186097,0.000000,0.000000,0.000000,1.000000
5.611986,5.456929,-0.173994,0.594616,0.390207,0.759440,0.264378,0.606368,0.294065,0.671300,0.399975,0.396863,0.445312,0.439535,0.403335,0.478693,0.295888,0.446019,0.304233,0.481702,0.373417,0.272528,0.375594,0.353268,0.383292,0.356553,0.143572,0.209508,0.023451,0.058891,-0.104667,-0.120608,-0.176497,-0.522377,-0.461119,-0.573032,-0.741596,-0.710003,-0.900466,-0.825420,-0.930810,-1.054014,-0.882024,-0.778511,-0.500124,-0.342372,-0.090686,0.277070,0.266409,0.398422,0.427837,0.406675,0.584054,0.387231,0.438063,0.315354,0.423898,0.386534,0.283362,0.334310,0.182907,0.133545,0.185703,0.098355,0.185614,0.069136,0.071997,0.204078,-0.047002,0.134087,0.117090,0.021879,0.060802,-0.060537,0.133389,-0.084485,-0.018090,0.152289,-0.008224,0.100481,0.106140,-0.050694,0.184747,-0.077589,0.075422,0.072346,0.012059,0.113229,-0.014208,0.037746,-0.046117,-0.018354,0.246359,0.018196,0.255763,0.189866,0.126281,0.500534,0.312617,0.428614,0.336758,0.057643,0.174911,-0.035983,-0.008231,-0.125320,-0.062177,-0.044745,-0.159164,-0.077645,-0.210781,-0.239878,-0.074890,-0.397335,-0.434680,-1.035358,-1.282920,0.469647,2.297059,4.041627,6.337214,1.358018,-1.685872,-0.820642,-0.655287,-0.504728,-0.550990,-0.449654,-0.559249,-0.313753,-0.482456,-0.384975,-0.417307,-0.324608,-0.270364,-0.330065,-0.399808,-0.485277,-0.464822,-0.335362,-0.369996,-0.290339,-0.247881,-0.478647,-0.249390,-0.482588,-0.438489,-0.399467,-0.459042,-0.444358,-0.510680,-0.688586,-0.679206,-1.012314,-0.874723,-1.223247,-1.179482,-1.337236,-1.599258,-1.660578,-1.740097,-1.703273,-1.410078,-1.439311,-0.895669,-0.966998,-0.564976,-0.421541,-0.123306,-0.006529,0.087104,0.081400,0.382041,0.013510,0.471501,0.042901,0.395969,0.111265,0.368026,0.004325,0.553574,-0.500669,0.000000,0.000000,0.000000,0.000000,0.000000,1.000000
4.105777,3.381187,-1.489800,-0.731288,-0.747029,-0.310930,-0.598644,-0.277175,-0.572938,-0.235418,-0.427807,-0.309895,-0.388574,-0.271297,-0.270019,-0.220723,-0.357862,-0.354912,-0.455241,-0.282791,-0.322146,-0.271839,-0.195636,-0.357593,-0.293980,-0.291825,-0.458773,-0.291444,-0.412772,-0.360614,-0.414185,-0.543731,-0.573541,-0.772135,-0.812386,-0.895614,-1.101178,-1.011581,-1.361682,-1.379073,-1.489953,-1.491739,-1.280042,-1.239205,-0.938483,-0.754568,-0.672588,-0.326821,-0.250345,0.028309,0.022392,0.077447,0.257504,0.132479,0.229869,0.252172,0.123163,0.312562,0.115639,0.241265,0.168367,0.137864,0.250761,0.190384,0.179950,0.242372,0.116747,0.273142,0.049096,0.238189,0.129971,0.114674,0.147372,0.116175,0.154578,0.084507,0.073135,0.158011,0.025096,0.264464,0.193784,0.143554,0.254807,0.194700,0.235464,0.185165,0.177203,0.403249,0.142259,0.308076,0.213344,0.203598,0.270471,0.182205,0.303901,0.346272,0.350581,0.517916,0.413270,0.603009,0.653208,0.700195,0.737626,0.601586,0.479920,0.489901,0.360913,0.437313,0.274660,0.369516,0.183158,0.269535,0.286782,0.217286,0.210949,0.336350,0.234094,0.279129,0.058087,-0.171338,-0.695864,-0.913675,0.385454,2.856549,4.872258,7.261975,4.668669,-0.243307,-0.138200,0.012717,-0.025082,-0.124310,-0.038719,-0.195006,0.067051,-0.183047,-0.077464,0.002153,-0.192300,-0.096264,-0.129480,-0.058096,-0.069523,-0.135084,0.031652,-0.157098,-0.106065,-0.025454,-0.238590,-0.084946,-0.245981,-0.142030,-0.146815,-0.356924,-0.229085,-0.384533,-0.445682,-0.527635,-0.743466,-0.618735,-0.932404,-0.952340,-1.057487,-1.268379,-1.309195,-1.273584,-1.328531,-1.247127,-1.142507,-0.772381,-0.669530,-0.261897,-0.097672,0.003078,0.197152,0.305187,0.272519,0.446367,0.230881,0.504002,0.208467,0.428190,0.232548,0.398881,0.187033,0.560048,-0.229845,1.000000
4.562024,6.348654,0.559337,-0.240469,-0.076884,0.082243,-0.197716,0.033079,-0.233682,0.038368,-0.109820,-0.136084,-0.003774,-0.110181,-0.170030,-0.066826,-0.139869,0.003159,-0.178822,0.014295,-0.089728,-0.153084,-0.022436,-0.158960,-0.165353,-0.126007,-0.252330,-0.046747,-0.327869,-0.239789,-0.296123,-0.415043,-0.435252,-0.643909,-0.626295,-0.709598,-0.949967,-0.880529,-1.143911,-1.202514,-1.213449,-1.206013,-1.218785,-1.118008,-0.884186,-0.642334,-0.464524,-0.089497,-0.089578,0.116413,0.247459,0.247410,0.355184,0.296287,0.328372,0.363955,0.226687,0.369439,0.225824,0.309098,0.312360,0.217132,0.310013,0.223370,0.257535,0.249845,0.167553,0.269257,0.113338,0.219678,0.171860,0.065544,0.150018,0.108600,0.099032,0.033924,-0.029979,0.155080,0.021780,0.122798,0.079121,0.011492,0.110496,0.061895,0.114094,0.116826,-0.005456,0.228376,0.046795,0.155055,0.194752,0.114610,0.117690,0.052863,0.206731,0.221096,0.226617,0.370024,0.279830,0.504746,0.415357,0.442860,0.649122,0.527659,0.582993,0.504988,0.311306,0.428636,0.180406,0.259733,0.207385,0.098621,0.184380,0.144499,0.076016,0.105530,0.006512,0.245098,-0.200221,-0.387867,-0.987519,-0.825555,0.945969,2.820464,4.627440,6.482174,2.949894,-0.405765,-0.152429,-0.218030,-0.072161,-0.344337,-0.139470,-0.312739,-0.235306,-0.221194,-0.325029,-0.175321,-0.296819,-0.172555,-0.176947,-0.303422,-0.124007,-0.267082,-0.200450,-0.209385,-0.207650,-0.177061,-0.309226,-0.173715,-0.273623,-0.360606,-0.268530,-0.480980,-0.465896,-0.471657,-0.657333,-0.618579,-0.859265,-0.851636,-0.975518,-1.172626,-1.157790,-1.378981,-1.334034,-1.317085,-1.396954,-1.202861,-1.303940,-1.035449,-0.862080,-0.643481,-0.340220,-0.264614,-0.121354,0.045569,0.016173,0.194487,-0.020859,0.215691,0.087675,0.087641,0.034535,0.216624,-0.099795,0.262394,-0.498520,1.000000
5.160370,6.811408,0.581107,0.132681,-0.089398,0.327699,-0.088080,0.117341,-0.004690,0.004124,0.038176,0.003454,-0.025792,0.106158,-0.071008,0.234161,-0.094144,0.138507,0.042291,0.044241,0.064411,0.065988,0.085979,0.031159,-0.017132,0.129449,-0.153755,0.012196,-0.150614,-0.259933,-0.199485,-0.358628,-0.431981,-0.508527,-0.740581,-0.651153,-1.006658,-0.970640,-1.166623,-1.262852,-1.161983,-1.275075,-1.152253,-1.104652,-1.074990,-0.693518,-0.602735,-0.181531,-0.037955,0.077433,0.298126,0.318249,0.449287,0.395010,0.372545,0.546677,0.329725,0.394969,0.437226,0.383210,0.345771,0.269283,0.361588,0.253344,0.246858,0.329486,0.140365,0.213802,0.270503,0.133458,0.211340,0.026465,0.184437,0.203140,0.106887,0.218990,0.129198,0.256431,0.124194,0.042914,0.256151,0.169952,0.296512,0.257418,0.215599,0.265119,0.301467,0.351871,0.299218,0.260812,0.357781,0.209256,0.302846,0.315049,0.377883,0.529175,0.511689,0.688443,0.594085,0.604826,0.786962,0.561992,0.726618,0.605093,0.528940,0.568873,0.436415,0.481686,0.325162,0.206179,0.317975,0.136043,0.239328,0.066887,0.065252,0.117706,-0.001209,0.006958,-0.394873,-0.955056,-0.918217,0.359894,2.187571,3.672054,5.606337,2.595970,-1.262118,-0.467396,-0.392231,-0.351422,-0.359173,-0.421402,-0.300388,-0.329875,-0.376746,-0.214194,-0.450808,-0.305639,-0.365311,-0.332621,-0.322105,-0.493068,-0.378624,-0.407887,-0.388844,-0.303524,-0.445041,-0.349402,-0.420406,-0.570949,-0.345351,-0.407176,-0.398898,-0.545275,-0.549252,-0.616108,-0.801568,-0.586425,-0.756998,-0.930196,-0.912577,-1.119893,-0.985718,-1.164641,-1.409798,-1.371335,-1.427318,-1.448552,-1.319419,-1.228371,-0.889633,-0.867167,-0.420902,-0.389032,-0.188146,-0.180912,-0.129179,-0.085662,0.113095,-0.109043,0.158735,-0.223798,0.177521,-0.440494,0.242890,-0.595374,0.000000,1.000000
4.726509,6.169765,-0.212435,-0.551394,-0.046966,0.007168,-0.045758,-0.012307,-0.081957,0.145533,-0.134430,0.185186,-0.068810,-0.009053,0.013035,-0.012200,0.048040,-0.093453,-0.132532,0.003222,-0.126030,0.078199,-0.084582,-0.048070,-0.015350,-0.236155,-0.109744,0.005971,-0.100314,-0.117897,-0.303225,-0.197759,-0.534075,-0.343044,-0.362119,-0.649187,-0.643622,-0.818564,-0.830946,-0.791490,-1.206381,-1.191921,-1.228585,-1.291385,-1.175705,-1.086643,-0.744107,-0.616210,-0.285036,0.006286,0.050327,0.257522,0.185205,0.301747,0.465855,0.370976,0.464995,0.331953,0.380560,0.261805,0.169780,0.473212,0.259596,0.281481,0.247596,0.108890,0.136821,0.045843,0.200916,0.131600,0.051690,0.122484,-0.036093,0.025921,0.069854,0.048836,0.244584,-0.031573,-0.001708,0.059530,-0.084568,0.147844,-0.024429,0.004682,-0.026101,-0.143804,0.148833,-0.070424,0.057837,0.018818,0.007698,0.168883,-0.056647,-0.063454,0.086286,0.072856,0.398961,0.307428,0.416153,0.520507,0.379764,0.488482,0.204005,0.232280,0.150966,-0.055549,0.132820,-0.083205,0.016016,-0.087455,-0.126788,0.037836,-0.160461,-0.097678,-0.035275,-0.167512,-0.359481,-1.037068,-1.097032,0.680865,2.740457,4.670487,6.639016,1.826512,-1.809401,-0.615514,-0.440675,-0.435268,-0.357176,-0.266927,-0.393937,-0.138576,-0.303671,-0.141896,-0.282219,-0.270469,-0.135462,-0.309282,-0.282684,-0.220303,-0.234289,-0.052850,-0.185795,-0.110570,-0.231629,-0.188809,-0.071718,-0.341513,-0.094410,-0.188092,-0.303710,-0.232030,-0.336711,-0.394825,-0.572638,-0.711537,-0.690451,-1.116908,-0.978252,-1.277309,-1.385966,-1.346816,-1.477160,-1.352413,-1.218726,-0.957864,-0.552662,-0.483992,0.104193,0.139378,0.401076,0.452945,0.417778,0.520071,0.435266,0.507053,0.622336,0.299588,0.677185,0.290286,0.550493,0.339131,0.568357,-0.141069,0.000000,0.000000,0.000000,1.000000
3.484528,3.028965,-1.350039,-0.651980,-0.482006,-0.305127,-0.452434,-0.181832,-0.432774,-0.157694,-0.309737,-0.182179,-0.261056,-0.279061,-0.210317,-0.226697,-0.341777,-0.200338,-0.293505,-0.115608,-0.198481,-0.167015,-0.209348,-0.252837,-0.120871,-0.272434,-0.232117,-0.134291,-0.317960,-0.234407,-0.303859,-0.341558,-0.437355,-0.585363,-0.548225,-0.790136,-0.845074,-0.869395,-1.120979,-1.011026,-1.143724,-1.082862,-0.994421,-0.855346,-0.550674,-0.457802,-0.161908,0.068798,0.091968,0.307335,0.179051,0.310589,0.243110,0.256890,0.376587,0.201354,0.298258,0.289670,0.164553,0.320787,0.174299,0.164336,0.176810,0.086614,0.173871,0.047563,0.083740,0.113013,0.077171,0.108240,0.001802,0.105785,0.061243,0.031088,0.094019,0.043015,0.109881,0.132425,-0.002794,0.154190,0.077427,0.132659,0.123645,0.073526,0.189382,0.038280,0.208282,0.068754,0.016481,0.203536,0.083542,0.198661,0.347118,0.354335,0.443096,0.306722,0.575625,0.547972,0.483525,0.589310,0.407562,0.377338,0.328487,0.203175,0.247229,0.177704,0.164143,0.097106,0.121817,0.294820,0.080655,0.100751,-0.220871,-0.783632,-0.518755,1.416832,3.611462,5.649389,6.994262,4.448021,0.432406,-1.443561,-1.416630,-0.578054,-0.173431,-0.283243,-0.216753,-0.225453,-0.293652,-0.234578,-0.281971,-0.206288,-0.253650,-0.299982,-0.146471,-0.289572,-0.067253,-0.134915,-0.206252,-0.096622,-0.198674,-0.168408,-0.200222,-0.251045,-0.199191,-0.388838,-0.299358,-0.469897,-0.539616,-0.544771,-0.710731,-0.793576,-0.875722,-1.040864,-1.004288,-1.199463,-1.064471,-1.206622,-1.217297,-1.183196,-1.141112,-0.951462,-0.796284,-0.487233,-0.102136,-0.095779,0.273478,0.215528,0.355211,0.391874,0.375686,0.338401,0.421437,0.336871,0.502396,0.174603,0.532035,0.105580,0.486281,-0.107691,0.000000,0.000000,0.000000,0.000000,0.000000,0.000000,0.000000,1.000000
4.480429,5.683372,1.215509,-0.851371,-1.682949,-0.790274,-0.397824,-0.223497,-0.405559,-0.198431,-0.415845,-0.264645,-0.378943,-0.275154,-0.311377,-0.355541,-0.282909,-0.279959,-0.288833,-0.100909,-0.332516,-0.166615,-0.257555,-0.248226,-0.257492,-0.309669,-0.282019,-0.365338,-0.427889,-0.400146,-0.614799,-0.543485,-0.688090,-0.786059,-0.847016,-0.990098,-1.020239,-1.102358,-1.150929,-1.080977,-1.257973,-1.147501,-1.190058,-1.029584,-0.888146,-0.700029,-0.302569,-0.188417,-0.010101,0.182108,0.124245,0.297205,0.246865,0.231445,0.268910,0.235306,0.327077,0.200473,0.217896,0.253282,0.102204,0.191911,0.151492,0.102100,0.133223,0.045174,0.153969,0.004662,0.002759,0.095651,-0.042608,0.039424,0.021173,0.001257,0.037078,-0.014039,0.063450,-0.041222,0.016880,0.120029,0.043123,0.121331,0.091994,0.113114,0.182946,0.074586,0.205087,0.133326,0.107429,0.135265,0.136197,0.247627,0.282430,0.291495,0.375533,0.287655,0.521888,0.456995,0.504825,0.558535,0.289622,0.317503,0.256105,0.148747,0.257173,0.116981,0.239242,0.085031,0.188663,0.144686,0.108702,-0.005066,-0.322793,-0.899975,-0.057709,1.651610,3.432696,4.959011,6.136421,3.201086,-0.464726,-0.114429,-0.141238,-0.074268,-0.092515,-0.143672,-0.067360,-0.124362,-0.145856,-0.081367,-0.215221,-0.040831,-0.125005,-0.158036,-0.045480,-0.157804,-0.054189,-0.079427,-0.068411,-0.077339,-0.163318,-0.041714,-0.133587,-0.175166,-0.126708,-0.240870,-0.203923,-0.404899,-0.390944,-0.417393,-0.599652,-0.561380,-0.666129,-0.814934,-0.734248,-0.937435,-0.891604,-1.079364,-0.922745,-0.855868,-0.923410,-0.745358,-0.523817,-0.413518,-0.189796,-0.211887,0.142539,0.039152,0.175581,0.220457,0.233203,0.139552,0.250449,0.085450,0.271564,-0.065004,0.312764,-0.053850,0.364325,-0.452870,0.000000,0.000000,0.000000,0.000000,0.000000,0.000000,0.000000,1.000000
5.451321,7.590783,0.974929,-0.159259,0.063514,0.172952,0.091735,0.160723,0.033561,0.237426,-0.039498,0.216608,-0.025233,0.126850,0.154123,0.050128,0.120799,0.154196,0.054645,0.242320,0.083008,0.237462,0.022335,0.161014,0.142107,0.034013,0.068505,0.022206,-0.048665,-0.100365,-0.336749,-0.180007,-0.460200,-0.480321,-0.506399,-0.740014,-0.716339,-0.812209,-0.940739,-0.977066,-1.103967,-0.775283,-0.947657,-0.800757,-0.527372,-0.336256,-0.094700,-0.012690,0.220787,0.435999,0.312936,0.584122,0.509108,0.494738,0.496343,0.459501,0.487693,0.371965,0.373272,0.494158,0.347768,0.359287,0.287735,0.285381,0.261486,0.307530,0.328326,0.130747,0.102653,0.259816,0.047948,0.240532,0.076188,0.080657,0.117072,0.102612,0.140042,0.098744,0.135196,0.219418,-0.037828,0.193805,0.019503,0.144699,0.101629,0.048742,0.280292,0.096242,0.039086,0.135024,-0.008805,0.266405,0.141778,0.318344,0.303239,0.187539,0.394368,0.401238,0.433021,0.474948,0.237422,0.318388,0.126464,0.124354,0.017058,-0.011823,-0.025259,-0.032827,-0.017739,0.036937,-0.134486,0.002845,-0.243673,-0.168514,-0.117644,-0.477396,-0.874049,-1.174292,0.286146,1.871854,3.168634,5.503821,2.320805,-1.453249,-0.618096,-0.536285,-0.334200,-0.514394,-0.327439,-0.263901,-0.351141,-0.332322,-0.413706,-0.247164,-0.400701,-0.451452,-0.200522,-0.398154,-0.249924,-0.205258,-0.343549,-0.247812,-0.386033,-0.225694,-0.282374,-0.319304,-0.184380,-0.212979,-0.331577,-0.391006,-0.500043,-0.266612,-0.572886,-0.398060,-0.572342,-0.760834,-0.699040,-0.929350,-0.926011,-1.054600,-1.150165,-1.050755,-1.452570,-1.326324,-1.317576,-1.309383,-1.276812,-1.097560,-0.776551,-0.520346,-0.605963,-0.210374,-0.232990,0.031819,-0.141696,0.052914,0.113752,0.021869,-0.018624,0.195693,-0.218825,0.447095,-0.639812,0.000000,0.000000,0.000000,0.000000,1.000000
3.904490,4.460364,-0.860878,-0.969757,-0.508092,-0.286269,-0.565907,-0.301544,-0.506065,-0.240428,-0.405877,-0.238029,-0.299627,-0.354208,-0.220613,-0.273968,-0.258305,-0.059557,-0.276991,-0.070012,-0.323703,-0.135688,-0.176857,-0.299642,-0.189943,-0.238018,-0.330233,-0.277702,-0.404907,-0.171339,-0.490539,-0.487050,-0.552622,-0.670194,-0.757016,-0.890347,-1.020723,-1.099306,-1.341349,-1.216848,-1.411535,-1.356556,-1.274072,-1.266273,-1.043030,-0.921076,-0.584210,-0.336034,-0.270226,0.077951,0.116555,0.220516,0.197769,0.227838,0.358626,0.213973,0.299026,0.414217,0.253528,0.286222,0.176743,0.277626,0.184177,0.101103,0.250147,0.154064,0.081888,0.210607,0.136355,0.201415,0.005775,0.144400,0.028678,0.011795,0.104862,-0.015494,0.090619,0.058044,-0.004165,0.208183,0.027363,0.109515,0.021150,0.085449,0.227984,0.073855,0.109032,0.127364,0.045524,0.183437,0.071147,0.209826,0.103366,0.120410,0.235895,0.107518,0.220034,0.318786,0.366778,0.494075,0.321143,0.674704,0.618432,0.558488,0.761165,0.581198,0.402111,0.465603,0.360136,0.407192,0.233514,0.299706,0.191982,0.162680,0.274876,0.168877,0.180313,0.151688,0.048603,-0.040798,-0.902981,-0.998621,0.222906,2.733475,4.789229,7.270094,4.615258,-0.284100,-0.119200,-0.089443,-0.099289,-0.206886,-0.172505,-0.324970,-0.089101,-0.354503,-0.205280,-0.234191,-0.275988,-0.173770,-0.268896,-0.118379,-0.219078,-0.249442,-0.043389,-0.224692,-0.102014,-0.108483,-0.172508,-0.089718,-0.183087,-0.132428,-0.207000,-0.256633,-0.213181,-0.456557,-0.350151,-0.438641,-0.537130,-0.600864,-0.868542,-0.788641,-1.104543,-1.120588,-1.109145,-1.353544,-1.156301,-1.131361,-1.130116,-0.856971,-0.832938,-0.319643,-0.227952,0.029781,0.257556,0.283382,0.319871,0.412027,0.404098,0.510058,0.223647,0.581629,0.297345,0.500400,0.196553,0.562171,0.009047,1.000000
3.953582,5.612785,0.302848,-0.304142,-0.247608,-0.122000,-0.354560,-0.188612,-0.446124,-0.192474,-0.379864,-0.338318,-0.299506,-0.352456,-0.301065,-0.305595,-0.301642,-0.213089,-0.406108,-0.153846,-0.288101,-0.244049,-0.200054,-0.256042,-0.228525,-0.229295,-0.280920,-0.229843,-0.378366,-0.260396,-0.469762,-0.450414,-0.444543,-0.566091,-0.583483,-0.796222,-0.813370,-0.923965,-1.130977,-0.989517,-1.237669,-1.157840,-1.052132,-1.108888,-0.903115,-0.845018,-0.557887,-0.284304,-0.230854,0.087720,0.087061,0.147846,0.189234,0.220999,0.291842,0.138115,0.232960,0.275010,0.159427,0.222092,0.114286,0.250227,0.162424,0.090211,0.190094,0.071655,0.106980,0.118225,0.012834,0.081017,-0.053692,0.055585,-0.010347,-0.055791,0.030529,-0.072466,-0.020830,-0.064635,0.015480,0.065307,-0.054998,0.076725,0.053955,-0.057416,0.074613,-0.032054,0.071922,0.118103,-0.008825,0.131408,0.006752,0.157989,0.083571,0.060916,0.193308,0.083086,0.201267,0.300650,0.257567,0.447127,0.354503,0.603471,0.450963,0.472663,0.459638,0.235210,0.290282,0.247211,0.174460,0.230965,0.080717,0.222992,0.079429,0.058692,0.127492,0.007797,0.078421,0.041058,-0.278376,-0.689480,-0.924860,0.749045,2.385591,3.971125,5.711699,6.164030,3.750705,-0.339156,-0.728555,-0.134739,-0.246051,-0.141212,-0.193925,-0.169360,-0.141608,-0.180294,-0.099059,-0.174042,-0.190318,-0.060672,-0.168779,-0.028282,-0.101161,-0.030184,-0.022229,-0.096606,0.069987,-0.060101,-0.132214,-0.060131,-0.262026,-0.098716,-0.216652,-0.217991,-0.237007,-0.351978,-0.324983,-0.498782,-0.630303,-0.596772,-0.896076,-0.772588,-0.889359,-0.888981,-0.905320,-1.066934,-0.998274,-0.929518,-0.950554,-0.684809,-0.597483,-0.248360,-0.317900,-0.087530,-0.049638,-0.052038,0.025627,0.058132,-0.124571,0.077028,-0.155986,0.051497,-0.228721,0.077280,-0.226757,0.076658,-0.611995,1.000000
5.751688,7.278930,1.032717,-0.550614,0.027203,0.279108,0.117943,0.314924,0.118644,0.334482,0.154422,0.330831,0.231505,0.195038,0.313480,0.282123,0.312258,0.389634,0.306894,0.479547,0.274208,0.498629,0.424908,0.259031,0.367172,0.165499,0.233201,0.256638,0.107342,0.202854,-0.007314,0.045241,-0.115468,-0.344048,-0.285187,-0.597980,-0.599221,-0.586729,-0.729081,-0.629631,-0.883308,-0.835112,-0.728137,-0.765597,-0.495936,-0.336536,0.027329,0.094345,0.207649,0.434890,0.317389,0.477862,0.498240,0.330520,0.458162,0.342814,0.388087,0.301284,0.336028,0.398772,0.223749,0.253498,0.231468,0.203034,0.215730,0.033729,0.235204,0.166666,0.079867,0.217205,0.059011,0.125930,-0.001161,0.070361,0.113078,-0.022890,0.215469,-0.007563,-0.047505,0.047349,-0.059980,0.069116,0.007725,0.013999,0.104362,-0.105454,0.162058,0.052080,-0.046423,-0.004441,-0.067164,0.163487,0.200966,0.213894,0.380874,0.107807,0.246484,0.352344,0.469260,0.312783,0.141008,0.225841,0.004927,-0.117963,-0.050033,-0.160789,0.011463,-0.173205,-0.171329,-0.203272,-0.205599,-0.155049,-0.077406,-0.198881,-0.254669,-0.790449,-0.998410,-0.160428,1.749972,3.271286,5.372244,2.138703,-1.526639,-0.493087,-0.488528,-0.504370,-0.454228,-0.464361,-0.432953,-0.372708,-0.545111,-0.320734,-0.370194,-0.342870,-0.350018,-0.458089,-0.277370,-0.427115,-0.230710,-0.287006,-0.418076,-0.289015,-0.573568,-0.446353,-0.427310,-0.472071,-0.403612,-0.552889,-0.564380,-0.635899,-0.748852,-0.704995,-1.041589,-0.910454,-0.965930,-1.197600,-1.078853,-1.516129,-1.330739,-1.585583,-1.563292,-1.317800,-1.183934,-0.922174,-0.611413,-0.445145,-0.111265,-0.210623,0.101699,-0.102353,0.022553,0.036296,-0.011961,-0.031079,0.056042,-0.210358,0.089027,-0.257371,0.240648,-0.320453,0.197205,-0.627796,0.000000,0.000000,0.000000,0.000000,0.000000,1.000000
4.251817,3.850916,-1.470630,-0.461502,-0.436494,-0.322411,-0.443237,-0.264195,-0.432808,-0.166570,-0.499434,-0.202409,-0.279862,-0.210889,-0.251248,-0.312941,-0.239054,-0.228098,-0.249479,-0.039830,-0.387626,-0.113525,-0.449604,-0.365863,-0.327052,-0.341871,-0.333250,-0.360621,-0.517900,-0.445564,-0.691970,-0.554331,-0.881550,-0.903859,-0.793173,-1.108303,-0.994760,-1.309519,-1.382566,-1.352886,-1.633415,-1.281839,-1.198497,-0.933183,-0.626666,-0.407400,-0.100675,-0.039431,0.077624,0.181336,0.002905,0.247089,0.087839,0.114231,0.164291,0.010326,0.077912,0.040133,0.090775,0.181149,-0.093143,0.129148,-0.000388,-0.045524,-0.037718,-0.173872,-0.040859,-0.088188,-0.140908,-0.084121,-0.197907,0.008910,-0.153549,-0.073372,0.025356,-0.132617,-0.030056,0.042355,-0.056891,0.001349,-0.082182,0.121809,-0.006030,0.003326,-0.014215,-0.086143,0.078417,-0.000242,0.024480,0.307153,0.193502,0.418009,0.372274,0.605634,0.593847,0.546449,0.520097,0.340850,0.292102,0.378037,0.137535,0.301159,0.176106,0.243574,0.170750,0.131282,0.219770,0.130088,0.101465,0.111418,-0.616692,-0.832024,-1.073447,0.489780,2.204041,3.240864,5.173460,6.990575,2.626112,-1.123087,-0.310789,-0.100451,-0.113205,-0.148982,-0.011649,-0.233130,0.021760,-0.146326,-0.101274,-0.041815,-0.155228,-0.072055,-0.071471,-0.018071,0.012303,-0.155039,0.098552,0.010436,0.029801,0.061941,-0.079473,0.126417,-0.092318,-0.093574,-0.018289,-0.232931,-0.150752,-0.287256,-0.400097,-0.459897,-0.744732,-0.719349,-1.056274,-1.072031,-1.146811,-1.311151,-1.180460,-1.124705,-1.017643,-0.568770,-0.446062,-0.063905,0.033885,0.391960,0.427240,0.499815,0.717842,0.653980,0.558652,0.704884,0.430692,0.781608,0.402725,0.643000,0.456809,0.556904,0.335700,0.750747,-0.059947,0.000000,0.000000,0.000000,0.000000,0.000000,0.000000,0.000000,0.000000,1.000000
4.184405,4.824206,-0.639938,-0.704734,-0.400254,-0.155458,-0.432357,-0.121459,-0.398349,-0.212036,-0.256731,-0.296401,-0.243675,-0.251268,-0.327186,-0.193399,-0.280304,-0.110877,-0.313485,-0.185613,-0.114054,-0.197241,-0.107229,-0.221423,-0.161996,-0.122333,-0.342563,-0.164320,-0.329852,-0.354007,-0.347989,-0.523125,-0.523278,-0.744865,-0.820720,-0.946034,-1.172935,-1.104217,-1.302223,-1.283143,-1.164629,-1.170015,-0.845409,-0.619754,-0.403801,-0.171944,-0.016140,0.238091,0.172215,0.377406,0.452823,0.293051,0.422025,0.269999,0.357978,0.369708,0.205674,0.369423,0.206754,0.230741,0.271185,0.192954,0.222760,0.113521,0.132088,0.124306,0.059132,0.192121,-0.011140,0.015387,0.131108,0.034198,0.071174,-0.063390,0.041269,0.090406,-0.079524,0.050702,0.037814,0.040991,0.077081,-0.040500,0.162073,-0.012014,0.093870,0.103457,0.044681,0.127169,0.028567,0.109250,0.118734,0.173000,0.423655,0.321083,0.418146,0.528308,0.539489,0.612234,0.540148,0.417460,0.403233,0.307228,0.404683,0.135739,0.253417,0.179276,0.108107,0.197088,0.132596,0.101753,0.186609,0.079127,0.173224,-0.371078,-0.534681,-0.986588,-0.835528,1.346734,3.480914,5.801704,7.019125,1.768719,-0.322371,0.006824,-0.136649,-0.060962,-0.221276,-0.098301,-0.330046,-0.169402,-0.113631,-0.282197,-0.148500,-0.211876,-0.168382,-0.178283,-0.186710,-0.058100,-0.171525,-0.119576,-0.105726,-0.269280,-0.087971,-0.216420,-0.245933,-0.287355,-0.268461,-0.234484,-0.442168,-0.491854,-0.481727,-0.657343,-0.652523,-0.906599,-0.883180,-1.041910,-1.206325,-1.183529,-1.331644,-1.346987,-1.179112,-1.249323,-0.877567,-0.669387,-0.381788,-0.329668,-0.179066,0.086097,0.100917,0.170369,0.358050,0.148092,0.362191,0.173733,0.291064,0.147575,0.203219,0.096902,0.162634,0.008368,0.404397,-0.515409,0.000000,0.000000,0.000000,0.000000,0.000000,1.000000
5.507242,5.392754,-0.319154,0.362339,-0.219984,0.265472,-0.215794,0.126375,-0.204235,-0.080484,-0.034151,-0.027969,-0.172224,0.039726,-0.161419,0.047654,-0.153220,0.081284,-0.025071,-0.012270,0.023613,-0.061231,-0.094735,0.049061,-0.181252,-0.084699,-0.221410,-0.061153,-0.239986,-0.361811,-0.360108,-0.447169,-0.556439,-0.636529,-0.848953,-0.778935,-1.093349,-1.061562,-1.160877,-1.276451,-1.147110,-1.116992,-1.009957,-0.610420,-0.440501,-0.172207,-0.198683,0.124463,0.239971,0.232330,0.443273,0.381859,0.367197,0.450955,0.312946,0.411028,0.257408,0.319765,0.244948,0.199131,0.368462,0.133241,0.172273,0.191714,0.131693,0.205357,0.145341,0.183407,0.077131,0.007330,0.124502,-0.023201,0.098063,0.086864,-0.014931,0.140005,0.117384,0.056237,0.133681,0.094764,0.323797,0.101094,0.159407,0.181166,0.140022,0.208341,0.144033,0.221991,0.361474,0.300040,0.502410,0.378001,0.585663,0.602239,0.626120,0.745256,0.657061,0.536817,0.492779,0.349137,0.427967,0.118412,0.254803,0.165946,0.122150,0.185294,0.161630,0.068223,0.131939,0.072902,0.093928,-0.636413,-1.025944,-0.399480,1.362390,2.141548,2.967257,4.573851,5.904064,1.418048,-0.789740,-0.066118,-0.350222,-0.190404,-0.296597,-0.134938,-0.366565,-0.241294,-0.243698,-0.303118,-0.169051,-0.313114,-0.329236,-0.264170,-0.272535,-0.207710,-0.330219,-0.273201,-0.238254,-0.405086,-0.222210,-0.357492,-0.248390,-0.312711,-0.439083,-0.386633,-0.567504,-0.553051,-0.463037,-0.801669,-0.671312,-0.953995,-0.934653,-1.190643,-1.243145,-1.251701,-1.321932,-1.373062,-1.193717,-1.404122,-1.032521,-1.065514,-0.657508,-0.552770,-0.320955,-0.247255,-0.179757,-0.117022,0.002001,-0.249050,0.040204,-0.307822,-0.006631,-0.237227,-0.035004,-0.326813,0.003306,-0.404066,0.201636,-1.018877,0.000000,0.000000,0.000000,0.000000,0.000000,0.000000,0.000000,1.000000
5.495727,5.942484,-0.424699,0.386921,0.011070,0.355772,0.031979,0.383517,0.096731,0.169363,0.179756,0.195197,0.157113,0.300336,-0.004442,0.225810,0.099022,0.273152,0.136020,0.125954,0.213078,0.096058,0.089999,0.205890,0.051148,0.258419,-0.042415,0.048443,-0.081833,-0.228294,-0.039566,-0.293904,-0.401951,-0.431895,-0.692084,-0.704661,-1.046051,-0.935008,-1.053966,-1.133879,-0.996919,-1.064883,-0.984959,-0.687119,-0.600934,-0.108657,-0.099954,0.250750,0.185503,0.340817,0.451129,0.315066,0.368180,0.361989,0.229956,0.436732,0.247179,0.342073,0.227779,0.317391,0.310721,0.142691,0.249490,0.132362,0.051679,0.220393,-0.105369,-0.005135,0.048206,0.081829,0.025598,-0.090392,-0.027656,-0.018449,-0.085730,0.130866,-0.283079,0.033840,0.092517,-0.018324,0.035060,-0.180043,-0.039629,-0.043750,-0.219142,-0.012535,-0.227840,-0.162934,-0.051968,-0.140284,-0.003298,0.099361,0.275701,0.199249,0.155370,0.549597,0.323688,0.387359,0.253973,0.171061,0.241680,0.031571,0.096543,0.080526,-0.152910,0.006369,-0.275571,0.051752,-0.150296,-0.176449,-0.038121,-0.193214,-0.223832,-0.485220,-1.049393,-0.803608,0.860224,2.740811,4.769942,6.114926,0.689938,-1.643513,-0.524992,-0.478307,-0.409852,-0.429118,-0.537632,-0.236647,-0.311876,-0.392765,-0.363605,-0.482862,-0.350494,-0.418958,-0.528417,-0.306773,-0.526006,-0.330423,-0.368064,-0.390862,-0.308004,-0.396757,-0.270330,-0.340393,-0.309460,-0.116789,-0.464443,-0.170419,-0.268472,-0.254428,-0.314106,-0.528187,-0.477819,-0.581612,-0.797692,-0.805104,-1.080651,-0.997247,-1.265466,-1.329358,-1.321106,-1.417654,-1.311862,-1.106276,-1.128667,-0.721146,-0.682111,-0.018014,-0.045379,0.183343,0.375118,0.431840,0.462869,0.611777,0.478364,0.767693,0.340198,0.946731,0.330605,0.924603,0.070828,0.000000,0.000000,0.000000,0.000000,0.000000,0.000000,1.000000
5.863527,6.233278,-0.342411,0.204872,-0.159328,0.165980,-0.198282,0.005506,-0.220860,0.042068,-0.276045,0.131527,-0.293143,0.014862,-0.137791,0.009521,0.023567,-0.032141,0.057613,0.049146,-0.064586,0.168908,-0.026731,0.159966,-0.184389,-0.112486,-0.039874,-0.190450,-0.213131,-0.210265,-0.478382,-0.308738,-0.687475,-0.655966,-0.909901,-0.940740,-1.006448,-1.215034,-1.192494,-1.256157,-1.426618,-1.120213,-1.250873,-0.857475,-0.789609,-0.439796,-0.126949,-0.114785,0.085764,0.173046,0.209458,0.410581,0.209984,0.481964,0.321106,0.335955,0.436537,0.293100,0.354008,0.331035,0.233606,0.338783,0.112589,0.262109,0.152647,0.116628,0.258125,0.220663,0.347244,0.132014,0.147313,0.229822,0.017090,0.101370,-0.028510,0.064781,0.147915,-0.030671,0.226021,0.182699,0.106085,0.257174,0.109558,0.306571,0.107492,0.236145,0.223913,0.171118,0.219628,0.258900,0.224258,0.281580,0.085573,0.337889,0.257245,0.293786,0.413733,0.374098,0.491445,0.527532,0.694329,0.669211,0.504393,0.649156,0.359263,0.425411,0.317747,0.141769,0.175147,0.063711,0.171184,0.240867,-0.013424,0.171967,-0.014046,0.135835,0.056083,-0.266917,-0.649273,-1.185391,-0.052847,2.143299,3.456154,5.996242,3.049949,-1.109844,-0.310608,-0.388444,-0.140428,-0.366467,-0.204247,-0.144566,-0.383881,-0.285959,-0.382442,-0.325188,-0.303324,-0.314230,-0.149096,-0.367335,-0.254610,-0.172536,-0.370436,-0.183593,-0.294832,-0.156710,-0.233038,-0.275852,-0.120417,-0.354507,-0.388351,-0.368176,-0.514059,-0.351647,-0.592458,-0.489385,-0.709752,-0.880267,-0.877122,-1.135648,-1.160732,-1.185774,-1.502970,-1.342251,-1.379266,-1.126745,-1.064000,-0.854840,-0.576580,-0.369901,-0.202255,0.031241,-0.224735,0.187640,-0.117412,0.135660,-0.055262,0.055392,0.004561,0.077909,-0.054669,0.281518,-0.371958,0.522565,-0.856775,0.000000,0.000000,1.000000
4.700989,6.005360,-0.459935,-0.540698,-0.314037,-0.103852,-0.227011,-0.224112,-0.029813,-0.234186,-0.295562,-0.229738,-0.355449,-0.168598,-0.322307,-0.062323,-0.231676,-0.269850,-0.063310,-0.259379,-0.190357,-0.145237,-0.181435,-0.045065,-0.275424,-0.030344,-0.195746,-0.355901,-0.277716,-0.446510,-0.341341,-0.438442,-0.534404,-0.512179,-0.901706,-0.819154,-1.078036,-1.216621,-1.159736,-1.479166,-1.490551,-1.401265,-1.300762,-1.060422,-0.996005,-0.622452,-0.388345,-0.211808,0.109683,-0.082016,0.139235,0.159065,0.061945,0.228635,0.009114,0.221043,0.101965,0.118578,0.283251,-0.012207,0.188096,0.067246,-0.012380,0.078325,-0.151216,0.094499,-0.198794,-0.090690,0.057690,-0.251955,0.001112,0.029205,0.033047,-0.003016,-0.227049,0.023987,0.056360,-0.053438,0.104746,-0.094038,0.062332,-0.132784,0.062980,0.108717,-0.098727,0.131938,-0.066969,-0.166625,0.075295,0.044349,0.295103,0.254401,0.252326,0.374294,0.368221,0.560775,0.445008,0.271028,0.225624,0.068816,0.052941,-0.016977,0.046939,0.248798,0.123917,0.119507,-0.030721,-0.099599,0.115146,-0.282364,-0.003967,-0.074799,-0.354124,-0.699075,-1.182721,0.653285,2.572090,4.603493,6.563149,0.963184,-1.405912,-0.515738,-0.426557,-0.185137,-0.448126,-0.212759,-0.194549,-0.290144,-0.165268,-0.207980,-0.093783,-0.189432,-0.089622,0.009641,-0.117282,0.016396,-0.161116,-0.187736,-0.070305,-0.174452,-0.012924,-0.144420,-0.093781,-0.081190,-0.268466,-0.115605,-0.365408,-0.452312,-0.431449,-0.562243,-0.643213,-0.952041,-0.983128,-1.048158,-1.286088,-1.168931,-1.366510,-1.194075,-0.835992,-0.712182,-0.258499,-0.091302,0.287368,0.512838,0.447204,0.751539,0.687845,0.654450,0.801857,0.702927,0.935544,0.704105,0.979203,0.885370,0.684446,0.837902,0.886921,0.591977,1.032385,0.131283,0.000000,0.000000,0.000000,0.000000,0.000000,0.000000,0.000000,1.000000
3.604619,2.438731,-1.808107,-0.904980,-1.034091,-0.558864,-0.899656,-0.691168,-0.696972,-0.674141,-0.731189,-0.604408,-0.678962,-0.558400,-0.704731,-0.440496,-0.634749,-0.492047,-0.596196,-0.658027,-0.609737,-0.594621,-0.611325,-0.519666,-0.680428,-0.492501,-0.731381,-0.611233,-0.713684,-0.853858,-0.856869,-0.891393,-0.997089,-1.122869,-1.334924,-1.240744,-1.493110,-1.445659,-1.509415,-1.562082,-1.264257,-1.123730,-0.891401,-0.605578,-0.475294,-0.113981,-0.178661,-0.031809,0.093725,-0.034231,0.094984,0.051388,0.145298,0.143415,0.096096,0.302673,0.047419,0.070310,0.219513,0.011812,0.157682,-0.019974,0.040279,-0.013362,-0.051128,0.072627,-0.114000,0.025122,0.067173,-0.005792,0.117462,0.001056,0.057091,0.004762,0.030598,0.084676,0.008116,0.053336,0.174630,0.015280,0.167773,0.132921,0.236459,0.148204,0.091698,0.257932,0.113901,0.170056,0.328202,0.216522,0.456160,0.452960,0.553059,0.532207,0.683530,0.764382,0.655074,0.712936,0.637115,0.426885,0.550166,0.406379,0.434324,0.372641,0.327918,0.538638,0.403363,0.443273,0.385252,0.330938,0.490021,0.267146,0.168806,-0.388424,-0.761731,0.819849,3.332344,5.428043,7.351730,2.812221,-0.206753,0.194412,0.085159,0.160661,-0.099358,0.140670,-0.075205,0.038810,0.056751,0.007784,0.131625,0.076311,0.100680,0.144060,0.019931,0.194934,0.070816,0.134900,0.146842,0.066863,0.091390,-0.041360,0.022896,-0.004256,-0.164088,-0.045476,-0.222262,-0.356475,-0.327889,-0.547499,-0.528433,-0.750534,-0.845218,-0.849981,-0.908603,-0.889919,-1.071244,-1.073515,-0.879528,-0.895595,-0.503703,-0.349663,-0.005855,0.101540,0.255008,0.420573,0.404834,0.416856,0.629133,0.431330,0.611458,0.490779,0.596219,0.510800,0.532412,0.422923,0.539460,0.246882,0.752897,-0.123970,0.000000,0.000000,0.000000,0.000000,0.000000,0.000000,0.000000,1.000000
4.875208,5.722423,-0.157083,-0.127797,-0.421718,-0.035156,-0.510339,-0.215478,-0.403822,-0.340699,-0.339859,-0.291677,-0.346500,-0.174735,-0.367525,-0.136358,-0.374675,-0.186190,-0.260732,-0.250047,-0.218207,-0.250146,-0.298703,-0.315807,-0.421829,-0.277287,-0.524759,-0.420574,-0.498459,-0.688590,-0.683710,-0.811107,-0.917056,-0.972220,-1.227770,-1.151731,-1.277584,-1.208386,-1.366280,-1.450712,-1.274372,-1.249188,-1.003550,-0.714465,-0.506031,-0.229660,-0.208558,0.061469,0.027164,0.044274,0.206144,0.144257,0.148458,0.216565,0.134194,0.239030,0.091792,0.145223,0.085689,0.015584,0.160240,-0.043955,0.087453,0.006014,-0.039885,0.023907,-0.038205,0.098274,-0.033027,-0.049648,0.040412,-0.061492,0.072200,0.053104,0.039490,0.071323,0.031578,0.157669,0.099244,0.113332,0.204205,0.127917,0.231976,0.124415,0.241597,0.233426,0.092922,0.211574,0.238670,0.209431,0.455498,0.333877,0.560816,0.471435,0.623509,0.572183,0.515815,0.577458,0.373998,0.387543,0.360579,0.157215,0.330228,0.200084,0.247139,0.254440,0.205404,0.239958,0.197544,0.171866,0.278168,0.041230,-0.116247,-0.714186,-0.940002,0.540471,2.778042,4.712978,6.488143,2.853923,-0.445513,-0.039171,0.055402,-0.027946,-0.104578,-0.035978,-0.182450,-0.055337,-0.156739,-0.067830,-0.082237,-0.154354,0.000573,-0.126246,-0.093899,0.020782,-0.085140,-0.044071,-0.181608,-0.072322,-0.086915,-0.182125,-0.044280,-0.232183,-0.153904,-0.214833,-0.295247,-0.290176,-0.513470,-0.451406,-0.522975,-0.730857,-0.728480,-0.911630,-0.865384,-1.097787,-1.108666,-1.076639,-1.211815,-1.103341,-0.969352,-0.836947,-0.459506,-0.367570,-0.045174,-0.001457,0.161107,0.231030,0.251890,0.299983,0.365727,0.195631,0.373587,0.109967,0.508134,0.143682,0.455183,0.151403,0.513211,-0.293368,0.000000,0.000000,0.000000,0.000000,0.000000,0.000000,0.000000,1.000000
5.656969,5.446328,-0.431321,0.181213,0.017974,0.297115,-0.147840,0.227947,-0.183245,0.140032,-0.113468,0.089740,-0.005465,0.006039,0.033481,0.103443,-0.098877,0.226597,-0.017090,0.137091,-0.102740,0.040045,0.029442,-0.055285,0.021663,-0.042051,-0.146913,-0.018427,-0.278799,-0.132890,-0.468491,-0.404910,-0.458457,-0.668979,-0.752925,-0.867974,-0.946850,-1.034702,-1.273270,-1.071695,-1.324546,-1.196434,-1.080450,-0.907110,-0.553710,-0.297011,-0.075500,0.187864,0.195487,0.459357,0.367290,0.506106,0.533496,0.433613,0.493260,0.379725,0.529349,0.552231,0.397058,0.614594,0.380891,0.442824,0.449525,0.379263,0.443220,0.259907,0.355975,0.280276,0.087290,0.370091,0.251398,0.194259,0.291566,0.250325,0.420333,0.150785,0.222780,0.313102,0.199049,0.312644,0.184479,0.362261,0.354922,0.205604,0.401450,0.247328,0.335353,0.345469,0.206097,0.335445,0.226865,0.358823,0.447843,0.427972,0.669047,0.480381,0.675862,0.792877,0.629282,0.630021,0.399910,0.627691,0.586232,0.421328,0.603760,0.164276,0.264747,0.208727,0.089050,0.073063,0.031770,0.104935,0.060881,-0.053588,0.050650,-0.121598,-0.170756,-0.708222,-1.292909,0.162693,1.976063,3.513907,5.830996,3.297036,-0.968749,-0.877648,-0.354961,-0.333047,-0.443475,-0.211662,-0.306799,-0.222146,-0.370035,-0.429497,-0.308038,-0.476906,-0.306011,-0.403743,-0.345437,-0.279319,-0.526587,-0.338299,-0.266896,-0.402157,-0.319286,-0.430977,-0.249298,-0.394950,-0.443693,-0.442623,-0.502823,-0.381886,-0.460281,-0.658814,-0.517867,-0.901485,-0.616124,-0.886910,-0.915759,-1.013630,-1.350133,-1.324250,-1.411260,-1.545543,-1.386924,-1.786963,-1.321119,-1.345062,-0.997220,-0.800929,-0.617388,-0.523504,-0.213674,-0.227986,0.037731,-0.327771,0.115787,-0.204409,-0.026248,-0.239424,0.145996,-0.380335,0.244998,-0.847207,0.000000,0.000000,0.000000,1.000000
4.587658,5.786151,0.010377,-0.662173,-0.199144,0.169919,-0.177605,0.176354,0.039448,0.164682,0.033636,-0.065152,0.024751,-0.047778,-0.038946,0.059263,-0.084855,0.162884,-0.148900,-0.042391,0.113941,-0.007505,0.018742,-0.029880,0.039939,0.072940,-0.128597,-0.037529,-0.164115,-0.050337,-0.033443,-0.298618,-0.165534,-0.458317,-0.397973,-0.376381,-0.671768,-0.551735,-0.999130,-1.020255,-1.052509,-1.253029,-1.080506,-1.402508,-1.216274,-0.953004,-0.872393,-0.439855,-0.374263,-0.169495,0.038463,0.175345,0.339386,0.181523,0.290104,0.394713,0.173683,0.307026,0.305907,0.305257,0.226754,0.216639,0.359741,0.136349,0.239523,0.121116,-0.004118,0.193549,-0.044680,-0.000818,-0.018460,-0.042964,0.020810,-0.193644,0.020160,-0.007845,-0.029116,0.065446,-0.027408,-0.005273,-0.022793,-0.069837,0.031008,-0.024128,-0.109426,0.014863,-0.077420,0.090282,-0.247051,-0.074823,-0.029724,-0.243349,0.002861,-0.026713,0.099581,0.092796,0.132586,0.297420,0.200364,0.484366,0.383392,0.284213,0.340112,0.022402,0.203238,-0.026613,-0.181171,-0.026481,-0.110357,-0.047949,-0.116243,-0.172163,0.001485,-0.189872,0.064501,-0.325063,-0.613063,-1.030616,-0.824522,1.307169,2.971289,4.932913,6.889621,2.081179,-1.923235,-1.166497,-0.804725,-0.333042,-0.421579,-0.195572,-0.322133,-0.263908,-0.202754,-0.210799,-0.175474,-0.192395,-0.153186,-0.011795,-0.161259,-0.002400,-0.061062,-0.058472,0.064982,-0.038736,0.134023,-0.011148,0.009874,0.043589,-0.124417,0.091855,-0.020307,-0.069969,-0.063496,-0.217695,-0.128181,-0.408456,-0.342779,-0.317993,-0.614661,-0.604935,-0.867822,-0.975567,-0.964677,-1.265104,-1.240821,-1.370257,-1.299310,-1.199160,-0.963128,-0.641814,-0.388472,-0.230430,0.212867,0.120223,0.529222,0.330211,0.563225,0.446932,0.513671,0.526331,0.537995,0.340070,0.827456,-0.127124,0.000000,0.000000,0.000000,1.000000
5.316643,5.940983,-0.154032,0.298784,-0.124608,0.169596,-0.199098,-0.033810,-0.108383,-0.103390,-0.175903,-0.000836,-0.226629,0.073265,-0.255293,0.011478,-0.175926,-0.115864,-0.060854,-0.092544,-0.095281,-0.038349,-0.203000,-0.046029,-0.315275,-0.048507,-0.257313,-0.260281,-0.246197,-0.294762,-0.336599,-0.353646,-0.508351,-0.454588,-0.719878,-0.666148,-0.852977,-0.931290,-1.062611,-1.241554,-1.172435,-1.171984,-1.326576,-1.124130,-1.186441,-0.758484,-0.679832,-0.401999,-0.139302,-0.110919,0.061775,0.244531,0.293267,0.452527,0.300993,0.537547,0.325102,0.392220,0.446253,0.285308,0.319063,0.313412,0.265199,0.397903,0.061674,0.321878,0.192922,0.158524,0.190700,0.116803,0.184203,0.117929,-0.006516,0.190306,-0.049526,0.087466,0.014118,0.092122,0.135398,0.049855,0.117921,0.080436,0.083342,0.204800,0.059345,0.269532,0.170906,0.277022,0.207786,0.189927,0.333344,0.242813,0.097480,0.249751,0.208819,0.404221,0.327017,0.536458,0.485086,0.501643,0.720385,0.602098,0.558412,0.569120,0.286904,0.478631,0.220132,0.298242,0.262966,0.173183,0.216285,0.100646,0.164434,0.254774,-0.007887,0.250336,-0.010418,0.113012,-0.101420,-0.422904,-0.968855,-0.926393,0.986655,2.913015,4.554420,6.356471,2.727061,-0.659199,-0.204005,-0.296015,-0.105169,-0.381021,-0.183789,-0.261399,-0.284534,-0.214146,-0.333174,-0.202601,-0.321662,-0.351071,-0.229649,-0.301149,-0.193447,-0.283891,-0.259438,-0.186306,-0.329479,-0.133735,-0.300122,-0.277837,-0.219564,-0.315257,-0.344559,-0.341609,-0.478747,-0.366635,-0.640572,-0.509445,-0.645412,-0.714231,-0.763168,-0.941792,-0.860499,-0.915570,-1.102007,-1.059697,-1.207990,-1.087095,-1.300669,-1.067177,-0.936958,-0.858266,-0.612539,-0.373314,-0.362643,-0.154556,-0.195531,0.180990,-0.090615,0.097166,0.006540,0.132300,-0.023172,0.244821,-0.327757,0.344765,-0.785455,1.000000
5.554236,5.619016,-0.374976,0.456739,-0.021216,0.564559,-0.017478,0.374600,0.161619,0.261853,0.196545,0.232501,0.174606,0.284109,0.004148,0.328661,0.108101,0.341065,0.171376,0.239324,0.275267,0.196673,0.278377,0.289948,0.105368,0.334041,0.128982,0.164588,0.101508,0.020964,0.044054,-0.106438,-0.182131,-0.095168,-0.390272,-0.258202,-0.613424,-0.455250,-0.548616,-0.691357,-0.761351,-0.812400,-0.821067,-0.880688,-0.891695,-0.498388,-0.592852,-0.201513,-0.012481,0.148288,0.240605,0.349221,0.582123,0.599291,0.456498,0.691008,0.521872,0.658745,0.625273,0.460839,0.481238,0.409834,0.507383,0.513051,0.343090,0.516719,0.298075,0.416269,0.271309,0.299244,0.349425,0.152438,0.235354,0.255097,0.194596,0.373349,0.143601,0.280578,0.075777,0.233444,0.285666,0.083800,0.282577,0.201610,0.037228,0.261463,0.126767,0.349626,0.205800,0.204653,0.225979,0.197002,0.326495,0.232412,0.342764,0.489435,0.276621,0.533433,0.542328,0.605032,0.613810,0.414709,0.278607,0.280809,0.178541,0.177444,0.063823,0.228249,-0.074871,0.082896,0.083391,0.033554,0.045452,-0.028347,-0.000250,-0.025696,-0.865333,-0.972479,-0.059592,2.068859,3.638860,6.006064,2.182553,-1.550167,-0.368515,-0.437415,-0.478073,-0.339343,-0.406888,-0.397925,-0.309784,-0.448026,-0.414900,-0.599214,-0.295199,-0.372031,-0.527638,-0.350122,-0.443611,-0.399614,-0.261615,-0.377905,-0.473992,-0.668746,-0.402769,-0.473906,-0.667222,-0.336946,-0.595815,-0.655215,-0.598693,-0.577578,-0.658526,-0.979901,-1.022104,-1.073973,-1.394326,-1.123486,-1.804873,-1.698981,-1.763308,-1.632706,-1.587952,-1.510072,-1.216894,-0.900419,-0.906500,-0.385680,-0.542917,-0.252621,-0.299012,-0.217716,-0.303584,-0.263154,-0.371509,-0.161293,-0.525021,-0.104577,-0.654514,-0.117211,-0.708557,-0.012898,-1.208089,0.000000,0.000000,0.000000,0.000000,1.000000
4.905439,4.964480,-1.015385,0.120767,0.105508,0.210302,0.112485,0.338975,0.053150,0.400863,0.073018,0.277791,-0.060200,0.257519,0.258554,0.109047,0.150511,0.251801,0.089972,0.373900,0.216937,0.205923,-0.079258,0.093664,0.211826,-0.082855,0.152127,0.150582,-0.124001,0.003559,-0.018849,0.003476,-0.283577,-0.497861,-0.395372,-0.806416,-0.604096,-0.953727,-1.315350,-1.118751,-1.221499,-0.997227,-1.048913,-0.799596,-0.419087,-0.366957,-0.019210,0.174648,0.143790,0.401765,0.297097,0.373513,0.307451,0.254999,0.382606,0.212109,0.301607,0.237676,0.143555,0.277483,0.115677,0.191646,0.038156,-0.003264,0.122679,-0.062642,0.045446,0.076655,-0.067762,-0.067327,-0.116213,-0.069390,-0.127637,-0.109168,0.019519,-0.114314,0.035807,0.017709,-0.019800,0.089965,-0.051181,0.062069,0.074966,-0.006966,0.127135,-0.049581,0.028682,-0.075632,0.020875,0.154136,0.035815,0.290408,0.307878,0.188511,0.436463,0.372616,0.496888,0.346769,0.206577,0.283490,0.094462,0.148825,-0.017084,-0.121863,0.081910,0.018417,0.041043,-0.057139,-0.119529,0.094164,-0.089125,-0.073133,-0.238841,-1.035945,-1.055093,0.843536,3.162858,5.053802,6.723200,1.082711,-1.572982,-0.197061,-0.411968,-0.375018,-0.176052,-0.330303,-0.370437,-0.351253,-0.396242,-0.258423,-0.359333,-0.161856,-0.179329,-0.231593,-0.161410,-0.344052,-0.061034,-0.230561,-0.189719,-0.082619,-0.360347,-0.191758,-0.226589,-0.331980,-0.255171,-0.520209,-0.446947,-0.571614,-0.791964,-0.842365,-1.161441,-1.166582,-1.362076,-1.613405,-1.446951,-1.669535,-1.535968,-1.571257,-1.431615,-1.008553,-0.777559,-0.363238,-0.136406,-0.078855,0.398127,0.061533,0.356419,0.262741,0.280544,0.277827,0.307105,0.222428,0.309046,0.096943,0.412028,-0.046359,0.356881,-0.058666,0.414191,-0.502285,0.000000,0.000000,0.000000,0.000000,0.000000,0.000000,0.000000,1.000000
4.100644,4.204130,-1.274290,-0.416383,-0.284140,-0.226062,-0.273659,-0.044474,-0.384357,-0.147697,-0.380760,-0.142597,-0.286061,-0.141997,-0.105972,-0.127229,-0.129450,-0.159384,-0.179077,0.013788,-0.251755,0.039057,-0.216809,-0.177556,-0.120471,-0.204690,-0.205709,-0.260282,-0.427751,-0.303886,-0.609629,-0.590716,-0.840836,-0.941334,-0.989538,-1.259400,-1.227902,-1.247263,-1.345195,-1.202421,-1.287231,-0.917585,-0.702980,-0.421193,-0.097969,-0.102966,0.251228,0.234891,0.167505,0.376068,0.199304,0.319765,0.258564,0.271337,0.264022,0.188519,0.271037,0.197542,0.118371,0.240230,0.094392,0.144518,0.067520,0.060828,0.125916,-0.065232,0.100148,0.027792,0.040290,0.093863,-0.073698,-0.016595,0.001000,-0.025511,0.055275,-0.099502,0.131694,0.043137,-0.004656,0.167671,0.052714,0.104862,0.007497,0.058977,0.137955,-0.045640,0.170934,0.047618,0.160747,0.363625,0.301711,0.443909,0.432207,0.529951,0.591649,0.466381,0.555487,0.341522,0.277970,0.295574,0.199872,0.272448,0.154414,0.108819,0.248008,0.039737,0.150830,0.074946,0.078977,0.107358,-0.141822,-0.605956,-1.136210,0.331339,3.114507,5.236422,7.550168,2.747824,-0.544976,0.191416,-0.173871,-0.072219,-0.295040,-0.193634,-0.265933,-0.305880,-0.158508,-0.274957,-0.290743,-0.132763,-0.231757,-0.153000,-0.204625,-0.190118,-0.138226,-0.267558,-0.113267,-0.158038,-0.233576,-0.166789,-0.273631,-0.320105,-0.266547,-0.282214,-0.343727,-0.527145,-0.500468,-0.804383,-0.841305,-0.856404,-1.120976,-1.146268,-1.178815,-1.297235,-1.225002,-1.287824,-0.940065,-0.917266,-0.547988,-0.290950,-0.108890,0.146781,0.216895,0.226129,0.291842,0.164567,0.359777,0.129981,0.348016,0.321772,0.276442,0.225695,0.330768,0.199517,0.346846,-0.098305,0.586393,-0.377381,0.000000,0.000000,0.000000,0.000000,0.000000,0.000000,0.000000,0.000000,0.000000,1.000000
5.432988,5.765089,-0.492619,0.181594,-0.247854,-0.002529,-0.367513,-0.188779,-0.333974,-0.282254,-0.319055,-0.163179,-0.444439,-0.132656,-0.293434,-0.176016,-0.249739,-0.217806,-0.204515,-0.232013,-0.265258,-0.095245,-0.315445,-0.177749,-0.293187,-0.331673,-0.347515,-0.285466,-0.362728,-0.492126,-0.567218,-0.681504,-0.956918,-0.813704,-1.106986,-1.185554,-1.204787,-1.308660,-1.301923,-1.321523,-1.140929,-0.922202,-0.806135,-0.338651,-0.273854,0.068468,0.150530,0.199797,0.238098,0.176112,0.243012,0.222596,0.153622,0.395472,0.194430,0.250836,0.225021,0.246838,0.247609,0.047594,0.210467,0.191451,0.050196,0.219888,0.100636,0.056557,0.056166,-0.002398,0.049082,-0.130292,0.071421,-0.020973,-0.065910,0.068093,-0.022385,0.102849,0.051097,-0.025738,0.157262,-0.028646,0.100561,0.131438,0.097762,0.136379,0.108622,0.177007,0.122092,0.085747,0.286965,0.157057,0.362370,0.475974,0.415175,0.530266,0.622288,0.658457,0.577999,0.490427,0.593732,0.258880,0.373458,0.282774,0.210155,0.145723,0.085292,0.126108,0.166281,-0.010882,0.170324,0.122526,0.180606,0.009214,-0.204513,-0.709769,-1.111461,0.486309,2.841392,4.680797,6.496721,1.981382,-0.586096,0.012763,-0.216616,-0.087119,-0.314497,-0.085858,-0.211711,-0.258919,-0.146662,-0.247693,-0.180973,-0.229521,-0.184905,-0.007684,-0.155841,-0.120130,-0.071542,-0.081272,-0.040487,-0.203615,0.033259,-0.147059,-0.152250,-0.093418,-0.193380,-0.168152,-0.223205,-0.352233,-0.298546,-0.600093,-0.485483,-0.733550,-0.824486,-0.819195,-1.032931,-1.026354,-1.041545,-1.242677,-1.113741,-1.174768,-0.795059,-0.870998,-0.586945,-0.310537,-0.218098,-0.060939,0.090988,0.022033,0.229249,-0.102479,0.331353,-0.022010,0.165592,0.113036,0.257330,0.009706,0.288685,-0.233326,0.507609,-0.701857,0.000000,0.000000,0.000000,0.000000,0.000000,0.000000,0.000000,1.000000
5.804526,5.578422,-0.580046,0.397528,-0.169801,0.311587,-0.214671,0.168355,-0.012889,0.006858,-0.040650,0.086583,-0.099058,0.107684,-0.122114,0.274322,0.070628,0.111383,0.116425,0.178078,0.172918,0.087499,0.129661,0.255943,-0.051111,0.206966,-0.000745,0.072034,-0.000960,-0.110913,-0.131555,-0.297467,-0.447591,-0.396911,-0.809924,-0.620679,-0.932174,-0.958198,-0.959486,-1.132483,-1.148655,-1.100350,-0.904953,-0.655289,-0.701802,-0.133874,-0.104130,0.126364,0.295713,0.292604,0.446678,0.271773,0.382066,0.505653,0.200991,0.527227,0.398318,0.445256,0.390293,0.289179,0.356301,0.297354,0.293315,0.389234,0.178073,0.266833,0.076000,0.152402,0.140025,0.070090,0.110983,0.016835,-0.058979,0.059138,-0.053016,0.112016,-0.086408,0.047206,0.022228,-0.063619,0.078867,0.048173,0.052385,0.028273,-0.000832,0.207597,-0.111374,0.109598,0.198216,0.067104,0.227510,0.241810,0.432666,0.390820,0.377449,0.731024,0.434525,0.465638,0.396543,0.267034,0.289998,0.090117,0.133557,0.279731,-0.025988,0.205519,-0.060196,0.035952,-0.097317,-0.069944,-0.005459,-0.054357,-0.091223,0.087390,-0.262958,-0.536800,-1.348149,-0.728217,1.227541,2.663897,4.745756,6.020182,1.228899,-1.583526,-0.782339,-0.310125,-0.340687,-0.321921,-0.239565,-0.439067,-0.080064,-0.308958,-0.343848,-0.212306,-0.415877,-0.285270,-0.341602,-0.120492,-0.224524,-0.292355,-0.028921,-0.234540,-0.235940,-0.255203,-0.450844,-0.171288,-0.324039,-0.233172,-0.389442,-0.261083,-0.189439,-0.415713,-0.426211,-0.395124,-0.455709,-0.293065,-0.621520,-0.688161,-0.900491,-0.950827,-1.142542,-1.347707,-1.349317,-1.527742,-1.688473,-1.330458,-1.513889,-1.093783,-0.977429,-0.661205,-0.374937,-0.242498,-0.133965,0.065551,-0.106151,0.288173,0.041474,0.431927,0.074284,0.499091,0.002503,0.529867,-0.447520,0.000000,0.000000,0.000000,0.000000,1.000000
4.015813,5.006713,-0.333075,-0.704537,-0.533710,-0.367091,-0.337800,-0.365636,-0.437090,-0.362864,-0.522353,-0.322880,-0.578235,-0.380865,-0.380093,-0.427718,-0.425948,-0.402665,-0.354465,-0.349431,-0.404493,-0.146198,-0.404573,-0.283242,-0.296344,-0.348912,-0.239691,-0.356704,-0.338034,-0.310549,-0.406266,-0.338005,-0.532609,-0.494971,-0.627966,-0.675397,-0.680390,-0.924750,-1.013824,-1.046806,-1.291238,-1.270851,-1.406117,-1.233843,-1.282168,-1.238630,-0.906185,-0.820198,-0.518138,-0.335553,-0.205963,0.031567,-0.003983,0.147446,0.250529,0.196244,0.241676,0.191438,0.264520,0.220480,0.101964,0.256389,0.058531,0.179026,0.165679,0.141455,0.181222,0.110630,0.201565,0.144012,0.009157,0.131069,-0.021489,0.020585,0.023650,-0.061342,0.015092,-0.072149,-0.009069,-0.120340,-0.149391,0.029179,-0.170849,-0.034781,0.021121,-0.069139,0.051608,0.013321,0.098776,0.037697,0.009482,0.113391,0.048406,0.106051,0.120407,0.161377,0.366935,0.279188,0.454036,0.468360,0.458561,0.667572,0.522337,0.646111,0.463084,0.322372,0.429858,0.218920,0.241349,0.196089,0.169057,0.217404,0.135543,0.226789,0.171948,0.174790,0.365526,-0.065231,-0.333434,-0.959675,-0.572503,1.439582,3.370906,5.463832,7.120972,3.119950,-0.357753,0.006051,-0.229906,-0.106464,-0.120605,-0.052536,-0.177523,-0.068831,-0.154598,-0.102397,-0.056544,-0.152564,-0.033257,-0.072594,-0.161618,-0.059077,-0.129150,0.058211,-0.039644,0.005904,0.028357,-0.081953,0.082524,0.028630,-0.090501,-0.037690,-0.124822,-0.149745,-0.249591,-0.339221,-0.282815,-0.534275,-0.478938,-0.606436,-0.806781,-0.692115,-0.868975,-0.834618,-0.990948,-1.110023,-0.976153,-1.159875,-0.913608,-0.874521,-0.519708,-0.286326,-0.185670,0.119986,0.275794,0.243239,0.509633,0.325055,0.566723,0.359892,0.578365,0.436271,0.476254,0.340575,0.676974,-0.067976,0.000000,1.000000
