4.496293,4.675102,1.149800,1.080226,0.384591,0.147657,-0.541189,-0.525840,-0.437681,-0.705708,-1.226995,-0.930554,-1.069071,-0.967821,-0.920945,-0.954342,-1.038738,-0.922782,-1.029460,-0.879245,-1.002713,-0.930782,-0.917652,-1.007351,-1.009324,-0.951455,-0.915061,-0.854355,-0.930854,-0.803747,-0.896529,-0.687639,-0.788819,-0.650240,-0.556284,-0.486768,-0.352057,-0.236242,-0.276321,-0.075830,-0.007690,0.109762,0.129951,0.214541,0.267210,0.220772,0.078708,0.020338,-0.062475,-0.028281,-0.355064,-0.384469,-0.403699,-0.440917,-0.354067,-0.500286,-0.525426,-0.519886,-0.585535,-0.446946,-0.508309,-0.399725,-0.459690,-0.446183,-0.344429,-0.347952,-0.342033,-0.317262,-0.367826,-0.181365,-0.289772,-0.169815,-0.242151,-0.253896,-0.155918,-0.255877,-0.209884,-0.238359,-0.208289,-0.146783,-0.276049,-0.234899,-0.202667,-0.229770,-0.149119,-0.300433,-0.301567,-0.191357,-0.269816,-0.189498,-0.290448,-0.285088,-0.270852,-0.221219,-0.192363,-0.227636,-0.127880,-0.069543,-0.018645,0.124257,0.331472,0.682327,0.577278,0.605440,0.526353,0.386692,0.415438,0.349518,0.111733,0.078479,-0.124841,-0.055880,-0.171783,-0.172411,-0.156275,-0.214645,-0.167809,-0.217808,-0.206226,-0.524627,-0.235753,2.021734,5.608477,6.492816,3.143047,1.410051,0.994634,0.557443,0.171413,-0.133733,-0.374034,-0.334252,-0.434113,-0.491686,-0.414771,-0.404416,-0.428769,-0.492963,-0.499276,-0.374767,-0.456924,-0.348900,-0.414532,-0.341984,-0.370334,-0.358570,-0.322768,-0.362948,-0.356087,-0.238881,-0.344166,-0.104403,-0.176711,-0.085332,-0.092314,-0.029510,0.081253,0.153540,0.183616,0.367369,0.342727,0.618146,0.647669,0.795562,0.843770,0.877565,0.993785,1.080988,1.029571,1.116750,0.933291,0.972978,0.653423,0.608778,0.465122,0.466562,0.258001,0.276324,0.109271,0.299585,-0.037318,0.303388,-0.094801,0.477020,-0.322782,0.000000,0.000000,1.000000
4.544325,5.070826,1.094297,0.469803,-0.280404,0.010452,-0.278876,-0.475413,-0.761310,-0.593262,-0.628411,-0.678891,-0.637977,-0.777796,-0.827423,-0.549974,-0.770175,-0.750014,-0.663281,-0.634489,-0.862632,-0.618452,-0.688039,-0.652080,-0.577214,-0.706411,-0.636126,-0.718256,-0.637430,-0.524957,-0.438492,-0.573946,-0.441826,-0.302821,-0.354632,-0.148770,-0.011652,0.013784,0.169654,0.295998,0.445953,0.448386,0.375682,0.550462,0.712061,0.379114,0.425893,0.205716,0.113489,0.183290,0.068308,-0.065289,-0.322017,-0.431471,-0.273567,-0.393694,-0.609493,-0.373151,-0.483530,-0.329875,-0.548427,-0.515800,-0.511012,-0.736072,-0.210898,-0.492776,-0.614768,-0.346535,-0.475676,-0.352281,-0.467346,-0.319414,-0.218079,-0.276852,-0.404149,-0.386641,-0.379922,-0.472268,-0.497966,-0.311344,-0.516949,-0.183573,-0.335762,-0.614762,-0.325339,-0.432118,-0.381115,-0.526969,-0.459210,-0.418361,-0.296709,-0.273389,-0.433870,-0.197625,-0.252307,-0.466286,-0.378880,-0.088271,-0.093829,-0.048444,0.091384,0.514633,0.589620,0.332624,0.372507,0.188227,0.085532,0.238399,0.083030,-0.385544,-0.199261,-0.248919,-0.317529,-0.448218,-0.428985,-0.267346,-0.429921,-0.502980,-0.715469,-0.530609,1.473900,4.857542,6.855491,3.706434,1.228224,0.285076,-0.076296,-0.316712,-0.379835,-0.271360,-0.592830,-0.591643,-0.524627,-0.521438,-0.510032,-0.727018,-0.524750,-0.458216,-0.370730,-0.285974,-0.453057,-0.457113,-0.379135,-0.398570,-0.460109,-0.667451,-0.206618,-0.257414,-0.400992,-0.203730,-0.401183,0.072200,0.200524,-0.020917,0.558290,-0.141775,0.305927,0.412413,0.416225,0.340189,1.058794,0.878595,0.871795,1.257209,1.363993,0.697714,1.093023,1.300345,1.151130,0.725964,0.334529,0.543279,0.033755,0.242480,0.860933,-0.122323,0.325030,0.229921,0.165141,-0.252860,-0.331202,0.207705,0.869399,-0.470410,0.000000,0.000000,0.000000,1.000000
4.384144,4.790408,0.918091,0.322568,-0.599146,-0.462016,-0.925477,-0.528334,-0.967907,-0.916897,-0.968814,-0.844959,-0.915420,-0.994308,-1.033787,-0.771667,-0.850071,-0.614838,-0.823420,-0.819895,-0.799235,-0.747725,-0.813837,-0.998505,-0.769537,-0.517993,-0.836101,-0.583931,-0.758445,-0.513944,-0.113240,-0.483547,0.074487,-0.339433,-0.327978,0.064587,-0.031084,-0.072537,0.383546,0.619309,0.307616,0.748434,0.918787,0.467687,0.398380,0.936160,0.673660,0.522432,-0.114606,0.147906,-0.232547,-0.348032,0.403751,-0.248870,-0.341667,0.004101,-0.331664,-0.397235,-0.872694,-0.285295,0.269833,-0.280747,-0.332682,-0.506043,-0.482620,-0.227059,-0.112808,0.182635,-0.385637,-0.368068,-0.077235,-0.249881,-0.292647,-0.044184,-0.583380,-0.037358,-0.149870,-0.283230,-0.057334,-0.247157,0.088114,-0.438545,-0.025132,-0.339669,-0.463037,0.742954,-0.684062,-0.051273,0.256562,-0.268557,-0.665470,0.421880,0.241816,-0.355646,-0.327635,-0.014472,0.420847,0.882815,0.303621,0.166363,0.835210,0.270008,0.097830,-0.156542,-0.070962,0.137344,-0.370553,-0.494795,0.070374,-0.019475,-0.462289,-0.020794,-0.366936,-0.152237,-0.407065,-0.900984,-0.402586,2.032920,5.575349,6.508056,2.640427,1.408108,0.061110,0.079986,0.299227,-0.534931,-0.696866,-0.463843,-0.620039,-0.057722,-0.454407,-0.560698,-0.203046,-0.719817,-0.716385,-0.999941,-0.267203,-0.415723,-0.777068,-0.407773,-0.674717,0.027123,-0.687202,-0.452189,-0.411198,-0.269459,-0.267194,-0.615937,-0.313315,-0.293489,-0.367451,0.340600,0.251422,0.249934,-0.058555,0.547519,0.426381,0.405436,0.562875,0.897245,0.662035,0.931948,1.110145,1.069212,0.421666,0.426218,1.118241,0.313125,-0.039722,0.267930,0.132667,0.241085,-0.270244,-0.343546,-0.134253,0.333266,-0.195869,-0.214138,-0.706826,0.087805,-0.599263,0.000000,0.000000,0.000000,0.000000,0.000000,0.000000,1.000000
4.820969,4.089823,1.011083,0.502850,-0.584142,0.372369,-0.739187,-0.862865,-0.848133,-0.763993,-0.550052,-0.384806,-1.037641,-0.324461,-0.960762,-0.886256,-1.304131,-0.690136,-0.504499,-1.061714,-0.680346,-0.928645,-0.346685,-0.687045,-0.908251,-0.538925,-0.664159,-0.368843,-0.893257,-0.607034,-0.515024,-0.652152,-0.051004,0.116070,-0.001909,-0.223885,0.123321,0.360003,0.075863,0.366062,0.575064,0.580681,0.543782,0.988940,0.822769,0.455158,-0.023256,0.957303,0.242546,-0.246343,-0.050139,-0.013006,-0.054151,-0.314149,-0.708439,-0.349999,-0.033983,-0.195110,-0.603245,-0.716699,-0.565020,-0.255415,-0.397419,-0.093058,-0.224536,-0.161282,-0.413313,-0.359241,-0.220744,-0.429028,-0.196195,-0.134377,-0.490905,-0.169174,-0.264900,-0.335341,-0.462400,-0.164763,-0.291973,-0.046629,-0.246054,-0.189198,-0.226007,-0.284982,-0.085937,-0.321291,-0.385612,-0.415151,-0.224058,-0.070730,-0.414379,-0.190833,0.006152,-0.180989,-0.314326,-0.107637,0.490959,0.305929,0.281189,0.123333,0.329416,-0.029811,0.033273,0.300395,-0.092323,-0.199497,-0.498418,-0.256592,-0.415753,-0.336346,-0.195576,-0.500648,-0.570510,-0.315124,-0.561224,-0.560506,-0.609456,-0.586593,1.428851,4.453347,6.867865,4.445903,1.939841,0.719792,-0.051894,0.083168,-0.448722,-0.283014,-0.308526,-0.508990,-0.289146,-0.464949,-0.471253,-0.542776,-0.436477,-0.532127,-0.269493,-0.429590,-0.784676,-0.479402,-0.262586,-0.306198,-0.692711,-0.342274,-0.093500,-0.421773,-0.418642,-0.680868,0.003838,-0.210044,-0.007234,-0.351911,-0.356001,-0.128830,-0.101285,0.044123,0.187054,0.116636,0.268724,0.516204,0.520644,0.558521,0.891112,0.927555,0.747289,1.148701,1.174218,0.979520,0.970524,0.501291,0.800802,0.175362,0.433546,0.069259,0.028291,-0.106054,0.002420,-0.128045,-0.048846,-0.441276,0.182351,-0.723206,0.000000,0.000000,0.000000,0.000000,0.000000,1.000000
4.377208,5.078789,1.557852,0.894835,-0.432912,0.003413,-0.693474,-0.475788,-0.556103,-0.644733,-0.611131,-0.559192,-0.758533,-0.670181,-0.734891,-0.656192,-0.634777,-0.466238,-1.022716,-0.715865,-0.574526,-0.420860,-0.867284,-0.675994,-0.324834,-0.560811,-0.625887,-0.852924,-0.438000,-0.288428,-0.387234,-0.350285,-0.732715,-0.306459,-0.427271,-0.173548,-0.157402,-0.034350,-0.137199,0.264968,0.198327,0.308056,0.426482,0.743567,0.414467,0.737221,0.897983,0.720792,0.713819,0.349820,0.408911,0.196170,-0.042147,0.103713,-0.352693,-0.173793,-0.390898,-0.204879,-0.391386,-0.448661,-0.408578,-0.361992,-0.393420,-0.596284,-0.369949,-0.511340,-0.453804,-0.291184,-0.479529,-0.184693,-0.221461,-0.416932,-0.375928,-0.338737,0.034513,-0.358849,-0.362614,-0.050228,-0.400966,-0.321550,-0.057804,-0.373740,-0.162653,-0.361974,-0.650972,0.100731,-0.025149,-0.261059,0.033698,-0.412818,-0.269530,0.038281,-0.373742,0.106081,0.012370,0.149698,-0.194570,0.180944,0.627529,0.610391,0.226324,0.415660,0.390596,0.238067,0.515445,0.119799,-0.267311,-0.141425,-0.075016,-0.094770,0.087510,-0.461210,0.092591,-0.041071,-0.413323,0.550776,-0.265442,-0.326891,0.350695,2.353821,5.578688,6.425646,3.296537,1.383357,0.820751,-0.047820,-0.175258,-0.264487,-0.659199,-0.675368,-0.585556,-0.523800,-0.746893,-0.530500,-0.585051,-0.503629,-0.907404,-1.010801,-0.505975,-0.629622,-0.692688,-0.930133,-0.650299,-0.269439,-0.744102,-0.602877,-0.670216,-0.489932,-0.340237,-0.490525,-0.660394,-0.447465,-0.616332,-0.204623,-0.207563,-0.132713,-0.236005,-0.135377,-0.118551,0.100158,-0.045096,0.188683,0.703296,0.673717,0.330278,0.805113,0.702531,1.004997,0.792330,0.768348,0.801174,0.578529,0.441745,0.322660,-0.020381,-0.012488,-0.147928,-0.074660,-0.309511,-0.055914,-0.592205,-0.130661,-0.869072,0.000000,0.000000,0.000000,0.000000,1.000000
4.741221,5.263803,1.511322,1.308992,0.107197,-0.083110,-0.243475,-0.453335,-0.757214,-0.571113,-0.541610,-0.641823,-0.660215,-0.493841,-0.569158,-0.643203,-1.141861,-0.609912,-0.560363,-0.658878,-0.833715,-0.857751,-0.271300,-0.581145,-0.690450,-0.607887,-0.598100,-0.343000,-0.393816,-0.653007,-0.484463,-0.570436,-0.371976,-0.136939,-0.177334,-0.162104,-0.193524,-0.100243,0.024177,0.061058,0.020358,0.583251,0.788677,0.390991,0.644936,0.807051,0.863931,0.993083,0.681960,0.904734,0.629190,0.526792,0.373255,0.124505,-0.050861,-0.057641,-0.112901,-0.200527,-0.157014,-0.333211,-0.414373,-0.385877,-0.195323,-0.422927,-0.443229,-0.313009,-0.466433,-0.079890,-0.071171,-0.150330,-0.450500,-0.363666,0.099232,-0.367490,-0.063458,-0.195830,0.038530,-0.401141,-0.034898,0.174907,-0.145751,0.049746,-0.073986,-0.106094,0.117534,0.055020,-0.006119,-0.298090,-0.075720,-0.064893,-0.314946,-0.290342,-0.178543,0.215857,0.250952,0.053307,0.113823,0.141929,0.315962,0.816473,0.497006,0.176448,-0.064994,0.175978,0.110860,-0.230970,-0.112478,-0.182918,-0.272413,-0.372100,-0.237025,-0.339196,-0.299487,-0.477978,-0.288556,-0.540365,-0.632395,-0.338616,1.582851,4.715606,6.485435,3.834587,0.972860,0.226854,-0.067438,-0.280128,-0.566895,-0.536609,-0.656274,-0.641347,-0.719426,-0.760705,-0.826770,-0.779910,-0.606650,-0.868211,-0.915187,-0.762826,-0.804493,-0.750262,-1.002415,-0.869916,-0.363556,-0.702065,-0.699169,-0.806186,-0.463194,-0.501903,-0.735365,-0.504589,-0.485508,-0.472106,-0.373769,-0.460919,-0.042008,-0.107468,-0.121492,-0.044808,0.500204,0.404630,0.510816,0.656578,0.636337,0.633245,0.886603,0.647007,0.867667,0.551114,0.534053,0.221830,0.177064,-0.059226,0.120766,-0.250260,-0.101485,-0.327228,-0.041433,-0.454963,0.063457,-0.419637,0.121501,-0.819340,0.000000,0.000000,0.000000,0.000000,0.000000,1.000000
4.629309,5.717294,1.370178,0.621771,-0.137963,-0.026163,-0.608069,-0.430821,-0.684589,-0.566857,-0.732390,-0.689714,-0.835777,-0.774419,-0.650485,-0.715032,-0.985008,-0.736487,-0.816448,-0.716589,-0.917327,-0.987155,-0.423482,-0.557916,-0.729940,-0.748587,-0.599052,-0.363134,-0.740176,-0.534496,-0.459161,-0.476069,-0.353219,-0.454023,-0.130709,-0.014357,-0.119609,-0.065504,0.397069,0.531564,0.454035,0.712354,0.675224,0.656984,0.893531,0.753188,0.844870,0.717715,0.534398,0.376789,0.176515,0.047779,0.081390,-0.089479,-0.176980,-0.195598,-0.137771,-0.266164,-0.143403,-0.115677,-0.205944,-0.190234,-0.249013,-0.219832,-0.238130,-0.247868,-0.292551,-0.209762,-0.132323,-0.138019,-0.155005,-0.200088,-0.129869,-0.135225,-0.144346,-0.170930,-0.097038,-0.156041,-0.248451,-0.152134,-0.104769,-0.090520,-0.121767,-0.196868,-0.064898,-0.154548,-0.185990,-0.181872,-0.086493,-0.133351,-0.101574,-0.044512,0.012217,0.013375,0.215279,0.428177,0.627949,0.555452,0.464528,0.538271,0.278048,0.239662,0.286949,0.015105,-0.062568,-0.136497,-0.144232,-0.167620,-0.214734,-0.244258,-0.326877,-0.235526,-0.243184,-0.344297,-0.416258,0.080513,2.041672,5.101283,6.394431,3.427461,0.874214,0.502485,0.175759,-0.025358,-0.272022,-0.586929,-0.414158,-0.562610,-0.622781,-0.584364,-0.613518,-0.685343,-0.593426,-0.725659,-0.604010,-0.751799,-0.662795,-0.649957,-0.646835,-0.685001,-0.651242,-0.655435,-0.583450,-0.651448,-0.595280,-0.618474,-0.558866,-0.578807,-0.474292,-0.489703,-0.461190,-0.408238,-0.311053,-0.284501,-0.130231,-0.199878,0.092661,0.025609,0.223602,0.306767,0.406549,0.505841,0.584676,0.594096,0.715736,0.487086,0.592561,0.326631,0.294913,0.046748,0.010901,-0.176773,-0.103453,-0.338739,-0.095448,-0.422499,-0.074748,-0.557664,-0.028376,-0.921001,0.000000,0.000000,0.000000,0.000000,0.000000,0.000000,0.000000,1.000000
5.032238,5.423749,1.152367,1.047021,0.324698,0.373316,-0.092767,-0.274061,-0.355526,-0.231521,-0.536461,-0.337008,-0.479635,-0.456137,-0.476278,-0.478350,-0.509076,-0.480692,-0.592959,-0.404462,-0.530256,-0.450255,-0.537458,-0.437307,-0.462663,-0.411724,-0.481524,-0.388961,-0.437930,-0.353248,-0.361943,-0.246438,-0.326672,-0.202926,-0.162029,-0.076710,0.029044,0.042361,0.195330,0.336177,0.325043,0.602084,0.573016,0.783171,0.807807,0.878968,0.959854,0.859746,0.793862,0.739934,0.500841,0.428620,0.198177,0.145282,0.053836,-0.020644,-0.011527,-0.042330,-0.071471,-0.063591,-0.189685,-0.107898,-0.203469,-0.129781,-0.183321,-0.157733,-0.065224,-0.159227,-0.062393,-0.043712,-0.160042,-0.041083,-0.154785,-0.027913,-0.078675,-0.063320,-0.067793,-0.094618,-0.075604,-0.035008,-0.112451,-0.064249,-0.170719,-0.093428,-0.106091,-0.117269,-0.095619,-0.090058,-0.064881,-0.118799,-0.226482,-0.105302,-0.135440,-0.070306,0.037296,0.004419,0.164408,0.330435,0.620876,0.634212,0.470243,0.570187,0.324253,0.323249,0.208580,0.068240,0.003336,-0.185715,-0.216718,-0.268132,-0.362026,-0.323298,-0.424310,-0.382394,-0.439739,-0.332798,-0.409567,-0.552465,0.237026,2.655884,5.971236,5.962594,2.083540,0.376497,0.035759,-0.096514,-0.367595,-0.703888,-0.765422,-0.754720,-0.864256,-0.904086,-0.908351,-0.826167,-0.925192,-0.886213,-0.909666,-0.903784,-0.858340,-0.850292,-0.905749,-0.848164,-0.990322,-0.834188,-0.804706,-0.815141,-0.842138,-0.901211,-0.768352,-0.651308,-0.824169,-0.503073,-0.658015,-0.390750,-0.407258,-0.304468,-0.062361,-0.000617,0.029971,0.225472,0.313873,0.453163,0.487988,0.494085,0.411972,0.515373,0.281772,0.204827,0.014194,-0.033468,-0.257240,-0.182342,-0.412260,-0.220194,-0.364214,-0.246410,-0.502837,-0.232280,-0.493673,-0.267881,-0.563517,0.042212,-0.998837,0.000000,0.000000,0.000000,0.000000,1.000000
4.782284,4.539673,0.571086,0.635259,-0.042965,0.154969,-0.538305,-0.448767,-0.642725,-0.532956,-0.776852,-0.649275,-0.708144,-0.625566,-0.772562,-0.634943,-0.770092,-0.626868,-0.680822,-0.663971,-0.688458,-0.717094,-0.745478,-0.545926,-0.657125,-0.587781,-0.721888,-0.612802,-0.448913,-0.592091,-0.403472,-0.362512,-0.327126,-0.100921,-0.212630,0.157459,0.177712,0.272711,0.363675,0.567510,0.617553,0.762362,0.710779,0.688469,0.712107,0.622843,0.412715,0.326237,0.171583,0.042758,-0.014753,-0.105578,-0.105206,-0.048524,-0.115000,-0.168683,-0.162912,-0.111672,-0.228161,-0.149800,-0.058639,-0.183924,-0.092406,-0.016540,-0.133269,0.027207,-0.175398,-0.104673,-0.086347,-0.021474,-0.019271,-0.090067,-0.017912,-0.005792,-0.074938,0.100177,-0.061967,0.019813,0.035758,-0.055922,-0.027357,0.025389,-0.029535,0.070367,-0.041770,0.092921,0.024330,0.151053,0.134768,0.243148,0.465730,0.627381,0.894991,0.824960,0.693772,0.625745,0.433861,0.473692,0.337055,0.160626,0.059158,-0.078460,-0.039029,0.000711,-0.285164,-0.196864,-0.288634,-0.065572,-0.252734,-0.410639,-0.079909,1.714139,4.975905,6.694828,3.626652,1.188210,0.183641,-0.020003,-0.229421,-0.501641,-0.503268,-0.651285,-0.683766,-0.770022,-0.749230,-0.684047,-0.741465,-0.667488,-0.766385,-0.783987,-0.663191,-0.733130,-0.853299,-0.790243,-0.890174,-0.661755,-0.859417,-0.698854,-0.705549,-0.734030,-0.747054,-0.765818,-0.613929,-0.544609,-0.549143,-0.409995,-0.334783,-0.158451,-0.195201,0.154763,0.127306,0.235773,0.328283,0.534879,0.527317,0.736927,0.519219,0.592720,0.351270,0.279165,-0.079386,0.089135,-0.222923,-0.286217,-0.523514,-0.274736,-0.562518,-0.360991,-0.484448,-0.272671,-0.590707,-0.354917,-0.701199,-0.163217,-1.090887,0.000000,0.000000,0.000000,0.000000,0.000000,0.000000,0.000000,0.000000,0.000000,0.000000,0.000000,0.000000,1.000000
4.954190,5.188810,1.387783,0.771458,-0.002438,0.205125,-0.408341,-0.181151,-0.518283,-0.396563,-0.622571,-0.506036,-0.540021,-0.485433,-0.528302,-0.488678,-0.644150,-0.446115,-0.527393,-0.624621,-0.612427,-0.669145,-0.522478,-0.581176,-0.592947,-0.439281,-0.579064,-0.499483,-0.607958,-0.427926,-0.363323,-0.344469,-0.251852,-0.149421,0.010879,0.005149,0.264283,0.375413,0.380245,0.523235,0.687719,0.738831,0.897099,0.798957,0.759282,0.647530,0.488693,0.218668,0.217263,0.117313,-0.119770,-0.237580,-0.179637,-0.220228,-0.300838,-0.165004,-0.206102,-0.204266,-0.339217,-0.270876,-0.294437,-0.294014,-0.319450,-0.336027,-0.353348,-0.259380,-0.281036,-0.296327,-0.371665,-0.295732,-0.229300,-0.282601,-0.258260,-0.309705,-0.210362,-0.248995,-0.274249,-0.131817,-0.158558,-0.319493,-0.325002,-0.388404,-0.347486,-0.367621,-0.301513,-0.319827,-0.317877,-0.199744,-0.247168,-0.226475,-0.160785,-0.072628,0.279119,0.461226,0.518873,0.313828,0.309555,0.295881,0.099375,0.042045,-0.200755,-0.327881,-0.268711,-0.417262,-0.350936,-0.523325,-0.479119,-0.459153,-0.498125,-0.482052,-0.687046,-0.408801,1.690746,5.394576,6.449547,2.623060,0.597461,0.172484,-0.058779,-0.302072,-0.596933,-0.705905,-0.705975,-0.868532,-0.619822,-0.732537,-0.677838,-0.768595,-0.763701,-0.680529,-0.734060,-0.693411,-0.539547,-0.735011,-0.606448,-0.622923,-0.533682,-0.626969,-0.561293,-0.508607,-0.481857,-0.505595,-0.387624,-0.506885,-0.300848,-0.367552,-0.234474,-0.142447,-0.049469,0.131112,0.274192,0.250830,0.538590,0.477175,0.719767,0.633715,0.858037,0.947986,0.904252,0.924678,0.959734,0.627501,0.566517,0.253070,0.299252,-0.019715,0.110284,-0.164274,0.023532,-0.086839,-0.128401,-0.460797,-0.098408,-0.304030,0.253003,-1.049520,0.000000,0.000000,0.000000,0.000000,0.000000,0.000000,0.000000,0.000000,0.000000,0.000000,0.000000,1.000000
4.410050,3.945778,0.358482,0.342365,-0.313451,-0.209200,-0.744237,-0.714840,-0.858411,-0.882262,-0.850235,-0.721891,-0.869429,-0.765990,-0.942398,-0.743822,-0.853146,-0.800123,-0.688512,-0.756547,-0.793569,-0.680760,-0.700844,-0.663862,-0.737319,-0.595301,-0.619652,-0.600225,-0.542459,-0.570429,-0.512112,-0.418219,-0.453195,-0.248397,-0.247714,-0.047608,0.095507,0.102146,0.289276,0.361967,0.450062,0.542525,0.548996,0.815321,0.708369,0.752175,0.788784,0.583863,0.410139,0.220431,0.115646,-0.022012,-0.115631,-0.145968,-0.252827,-0.094775,-0.283621,-0.438186,-0.416513,-0.289910,-0.130714,-0.488747,-0.424216,-0.085792,-0.322859,-0.290929,-0.241959,-0.154918,-0.089002,-0.327581,-0.125265,0.077194,-0.161062,0.024581,0.179575,-0.119781,0.128859,-0.055036,0.141920,0.038686,0.044766,0.090940,0.117482,0.007673,0.055056,0.114752,0.000770,0.025968,0.025797,0.052248,0.249359,0.082820,0.208781,0.414519,0.281009,0.817862,0.966284,0.791054,0.886692,0.384882,0.660228,0.616257,0.314894,0.415103,0.005281,0.027030,-0.187447,0.102046,0.273650,-0.241427,-0.396877,0.006942,-0.134473,-0.041004,-0.669517,0.383479,2.947924,6.328072,6.349442,2.623847,0.691608,0.352816,0.020213,-0.344574,-0.241304,-0.070095,-0.619627,-0.771991,-0.563120,-0.504768,-0.423052,-0.574815,-0.835415,-0.399465,-0.570387,-0.884228,-0.444999,-0.931099,-0.560294,-1.064686,-0.980285,-0.406744,-0.916669,-0.974456,-0.621112,-0.692433,-0.480970,-0.873434,-0.785860,-0.887622,-0.251117,-0.222454,-0.168878,-0.139010,-0.424475,-0.629708,0.449070,0.641109,0.330571,-0.226922,0.198569,0.274177,0.562763,0.822577,0.742978,0.195739,0.090589,0.372252,0.194301,-0.047738,0.079631,-0.316912,-0.590300,-0.738207,0.051221,-0.316646,-0.194599,-0.421148,0.415933,-0.585898,0.000000,0.000000,0.000000,0.000000,0.000000,0.000000,0.000000,1.000000
4.458107,3.932715,0.465149,0.331992,-0.242917,-0.380956,-0.656478,-0.233393,-0.690251,-0.968263,-0.862223,-0.715000,-0.691098,-0.687428,-1.020864,-0.783878,-0.608690,-1.132697,-0.705061,-1.015329,-0.900810,-1.016802,-1.363339,-0.677264,-0.938529,-1.254540,-0.866712,-0.918514,-0.709939,-0.980114,-1.020012,-1.086889,-0.674124,-0.393114,-0.475059,-0.348821,-0.555896,-0.895467,-0.114342,0.418063,0.129136,-0.361672,-0.236369,0.064048,0.122681,0.539060,0.446962,0.100052,-0.262034,0.104195,-0.042306,-0.251223,-0.222124,-0.413097,-0.801845,-0.936607,-0.388402,-0.362083,-0.586326,-0.496358,-0.191728,-0.241248,-0.475668,-0.453131,-0.713697,-0.848583,-0.874272,-0.661627,-0.700208,-0.630197,-0.529284,-0.456985,-0.342136,-0.522862,-0.378495,-0.438772,-0.395462,-0.401515,-0.459113,-0.465820,-0.526359,-0.548131,-0.165197,-0.145143,-0.347971,-0.187812,-0.351978,-0.262911,-0.235570,-0.410701,-0.070237,-0.055504,-0.023772,-0.040018,0.068106,-0.010192,-0.151029,0.009166,0.377293,0.632073,0.511270,0.375919,0.423963,0.414067,0.284132,0.153114,-0.010676,0.071820,-0.102095,-0.048947,-0.048217,-0.255051,-0.072208,-0.088152,0.011862,-0.092084,-0.214013,0.022561,1.637913,4.803950,6.730258,3.885671,1.600747,1.041388,0.722976,0.500994,0.174428,-0.032433,-0.332174,-0.308436,-0.140239,-0.310221,-0.208498,-0.425191,-0.242872,-0.339554,-0.314131,-0.287760,-0.252109,-0.296988,-0.280338,-0.407305,-0.113618,-0.372206,-0.399920,-0.346276,-0.182995,-0.171808,-0.292879,-0.151136,-0.097279,-0.084396,-0.025420,0.002809,0.111299,0.104484,0.476118,0.474828,0.503921,0.582688,0.797234,0.801954,1.075502,0.902859,1.200203,1.093029,1.201286,1.096302,1.039509,0.888754,0.945907,0.673767,0.671102,0.368282,0.551606,0.211711,0.401833,0.320237,0.369028,0.046448,0.616751,-0.089070,0.000000,0.000000,0.000000,0.000000,0.000000,1.000000
4.456716,4.863944,1.291927,0.978105,0.414238,0.555151,-0.184408,-0.251816,-0.013078,-0.254534,-0.583700,-0.275537,-0.084125,-0.199679,-0.224658,0.218349,0.011838,-0.165709,-0.540536,-0.090556,0.122028,-0.177298,0.192321,0.460419,0.239427,-0.149102,0.533382,1.091384,0.036734,-0.355113,0.474958,0.047530,-0.197495,1.293455,0.504632,-0.284259,1.564309,0.526361,0.051379,0.748651,2.039448,0.690437,1.018426,2.583691,0.982476,0.421475,1.396023,1.120824,0.432609,1.407061,0.755772,-0.469085,0.528596,0.075571,0.465107,0.904649,0.168682,-0.649765,0.330987,0.673049,-0.284827,-0.247853,0.303377,-0.450234,0.587988,-0.597935,-0.408027,0.196848,-0.217869,-0.430047,0.454323,0.203148,-0.850431,-0.750186,0.173035,-0.181326,-0.692888,-0.245785,-0.211568,0.002518,-0.313632,-0.948182,-0.337834,-0.010331,-0.423222,-0.803340,-0.678035,0.001196,-0.750551,-0.741397,-0.139160,0.066200,-0.633540,-0.707040,-0.438417,0.106956,0.313037,0.295637,0.228678,0.151651,0.142686,-0.248810,-0.039738,-0.238634,-0.489541,-0.596417,-0.617799,-0.582312,-0.553469,-0.564857,-0.636780,-0.628144,-0.550136,-0.841000,-1.037871,-0.411980,1.370714,4.579255,5.617673,2.563498,1.005143,-0.197971,-0.482446,-0.344175,-0.526835,-0.593655,-0.880380,-0.949633,-0.816690,-0.826623,-0.717461,-0.826457,-0.872566,-0.734084,-0.748796,-0.745445,-0.724542,-0.732095,-0.862614,-0.888999,-0.688653,-0.777358,-0.691705,-0.838127,-0.756680,-0.755441,-0.638620,-0.579021,-0.637779,-0.705451,-0.358415,-0.526567,-0.414949,-0.287597,-0.150220,-0.129724,0.050962,0.050398,0.106882,0.098210,0.347928,0.100791,0.315158,0.151624,0.112012,-0.065492,-0.168443,-0.438138,-0.360546,-0.619582,-0.388772,-0.824603,-0.498607,-0.675956,-0.678474,-0.739799,-0.479562,-0.858475,-0.241446,-1.242378,0.000000,0.000000,0.000000,0.000000,0.000000,0.000000,0.000000,1.000000
4.944351,5.181817,1.595439,0.952835,-0.398674,0.243748,-0.269919,-0.058147,-0.563790,-0.559745,-0.618110,-0.413199,-0.499166,-0.352415,-0.651814,-0.366083,-0.459783,-0.362107,-0.442111,-0.336977,-0.522963,-0.572666,-0.421242,-0.382690,-0.408108,-0.423220,-0.507014,-0.372683,-0.379239,-0.189918,-0.281010,-0.365185,-0.092347,-0.049576,-0.154265,0.121746,0.182918,0.309619,0.396742,0.529736,0.504020,0.545306,0.748492,0.643847,0.664039,0.726642,0.497416,0.465264,0.224799,0.035817,-0.034865,-0.168311,-0.108340,-0.316509,-0.340091,-0.130902,-0.479806,-0.273276,-0.285392,-0.304295,-0.203571,-0.309566,-0.282630,-0.358972,-0.192953,-0.192874,-0.284967,-0.007359,-0.097510,-0.041303,-0.169427,-0.188944,-0.062242,-0.145022,-0.157536,-0.171865,-0.106792,-0.031339,-0.248884,-0.227234,-0.186184,-0.148050,-0.122803,-0.234851,-0.201458,-0.095930,-0.058289,-0.007190,-0.101692,0.027783,0.165099,0.445071,0.730763,0.638530,0.577295,0.493890,0.338357,0.333475,0.106320,0.014361,-0.144464,-0.204365,-0.223809,-0.319539,-0.318965,-0.276037,-0.425151,-0.272293,-0.428420,-0.700450,-0.497626,1.570937,5.128211,6.522598,3.419174,1.133812,-0.000871,-0.192200,-0.320905,-0.510459,-0.722138,-0.714516,-0.654272,-0.752433,-0.698106,-0.698439,-0.812981,-0.753375,-0.795450,-0.704733,-0.783694,-0.712371,-0.732797,-0.744172,-0.682488,-0.736248,-0.764468,-0.727084,-0.745793,-0.642855,-0.759011,-0.563574,-0.499784,-0.497080,-0.487050,-0.394330,-0.353083,-0.145168,-0.214014,0.049151,0.040309,0.274587,0.291061,0.443220,0.497348,0.503612,0.485413,0.638791,0.379294,0.400936,0.149535,0.267939,-0.028169,-0.101893,-0.117942,-0.127572,-0.344953,-0.173269,-0.464946,-0.162427,-0.526974,-0.167116,-0.573400,-0.060799,-0.851554,0.000000,0.000000,0.000000,0.000000,0.000000,0.000000,0.000000,0.000000,0.000000,0.000000,0.000000,0.000000,1.000000
4.734416,4.831164,1.187622,0.445898,-0.353604,-0.086393,-0.575304,-0.541406,-0.818076,-0.533708,-0.790271,-0.629602,-0.712557,-0.723721,-0.792637,-0.719793,-0.745968,-0.692170,-0.762920,-0.644284,-0.774761,-0.629940,-0.722200,-0.720380,-0.727931,-0.710872,-0.650512,-0.690921,-0.635303,-0.443207,-0.494841,-0.453043,-0.401857,-0.342370,-0.167250,-0.159167,-0.017440,0.108157,0.203506,0.370695,0.392315,0.567256,0.528944,0.529238,0.645761,0.529865,0.410809,0.297265,0.226109,0.184081,-0.125067,-0.036915,-0.099671,-0.235883,-0.215603,-0.308389,-0.286246,-0.293164,-0.370417,-0.265828,-0.391461,-0.258676,-0.250918,-0.312264,-0.138052,-0.262069,-0.177606,-0.245385,-0.175347,-0.090736,-0.156497,-0.079685,-0.114813,-0.111110,-0.039733,-0.181246,-0.126572,-0.151238,-0.191310,-0.091962,-0.210977,-0.166813,-0.115720,-0.181730,-0.094014,-0.187836,-0.074145,-0.068297,-0.053845,0.006554,0.059880,0.092198,0.189320,0.418683,0.759066,0.600269,0.585813,0.509111,0.349912,0.356320,0.261116,0.153700,-0.108901,-0.139514,-0.144139,-0.289765,-0.173964,-0.182085,-0.263745,-0.200839,-0.309523,-0.375922,-0.701408,-0.241585,2.010398,5.244912,6.598730,3.661505,1.393144,0.451582,0.079239,-0.093529,-0.360901,-0.607404,-0.576712,-0.697223,-0.601357,-0.663439,-0.679514,-0.606967,-0.641129,-0.680480,-0.670961,-0.673112,-0.585819,-0.735986,-0.586464,-0.666153,-0.583241,-0.593767,-0.632478,-0.602071,-0.581232,-0.650768,-0.502783,-0.578428,-0.268649,-0.397851,-0.301702,-0.278692,-0.136620,-0.021191,0.105642,0.166429,0.352164,0.310447,0.612565,0.598978,0.793236,0.678884,0.811247,0.780244,0.703279,0.586717,0.570172,0.199475,0.321462,-0.021981,0.033402,-0.138916,-0.098501,-0.228787,-0.148819,-0.396165,-0.016825,-0.548270,0.103371,-0.914333,0.000000,0.000000,0.000000,0.000000,0.000000,0.000000,0.000000,0.000000,0.000000,1.000000
4.703686,5.498369,1.669158,0.913441,-0.041321,0.061996,-0.393445,-0.506116,-0.713000,-0.630171,-0.766725,-0.601468,-0.802085,-0.629018,-0.703619,-0.692042,-0.742364,-0.718116,-0.663411,-0.715788,-0.726892,-0.640042,-0.712393,-0.590918,-0.693230,-0.659785,-0.623691,-0.692068,-0.600533,-0.609956,-0.458811,-0.339604,-0.445569,-0.299555,-0.283381,-0.095597,-0.000716,0.086519,0.239062,0.271745,0.421810,0.586651,0.642751,0.721333,0.660327,0.798044,0.681689,0.583399,0.564991,0.303771,0.203362,0.128337,-0.096721,-0.062475,-0.198994,-0.203081,-0.222487,-0.362034,-0.218292,-0.337318,-0.307335,-0.324491,-0.392582,-0.346008,-0.334587,-0.288716,-0.301143,-0.277236,-0.263026,-0.251007,-0.246397,-0.241530,-0.239693,-0.212227,-0.182690,-0.188039,-0.161262,-0.232736,-0.109135,-0.138841,-0.171254,-0.174290,-0.186822,-0.095860,-0.165614,-0.160128,-0.143566,-0.208894,-0.141222,-0.187179,-0.126739,-0.114851,-0.158377,0.009435,-0.052621,-0.010049,0.073409,0.251386,0.641189,0.672420,0.674300,0.571190,0.368900,0.429072,0.311816,0.063953,-0.038071,-0.144889,-0.168259,-0.232689,-0.294178,-0.192549,-0.318652,-0.275545,-0.352652,-0.358008,-0.585366,0.051637,2.387845,5.764869,6.144812,2.759693,0.996902,0.594264,0.288864,-0.099795,-0.464726,-0.652436,-0.580780,-0.671232,-0.655625,-0.654709,-0.697931,-0.654314,-0.634866,-0.667964,-0.650266,-0.730877,-0.574314,-0.662350,-0.570073,-0.628764,-0.683985,-0.571650,-0.667456,-0.615928,-0.491115,-0.592918,-0.444366,-0.484430,-0.354438,-0.311498,-0.208884,-0.169026,-0.043985,-0.000795,0.245911,0.258715,0.517068,0.448739,0.646778,0.687181,0.747756,0.693058,0.743473,0.494864,0.498339,0.167977,0.263371,-0.091726,0.031984,-0.179166,-0.193467,-0.244725,-0.165679,-0.367940,-0.207959,-0.542847,-0.095371,-0.643147,-0.052712,-0.975543,0.000000,0.000000,0.000000,0.000000,0.000000,1.000000
4.957300,5.335444,1.401327,1.173333,0.451561,0.402171,-0.260440,-0.358694,-0.544168,-0.388332,-0.601331,-0.422638,-0.592472,-0.480780,-0.518029,-0.475134,-0.524210,-0.534568,-0.516516,-0.423110,-0.513126,-0.376187,-0.583455,-0.416541,-0.488485,-0.503334,-0.361085,-0.399946,-0.360101,-0.285080,-0.274085,-0.133513,-0.099571,0.000566,0.076233,0.156711,0.340931,0.449371,0.609880,0.698382,0.732336,0.923369,0.906974,0.931236,0.929375,0.784183,0.679720,0.469406,0.387787,0.238642,0.093504,0.144399,-0.111409,0.001614,-0.066791,-0.098960,-0.133281,-0.241931,-0.131817,-0.196258,-0.263394,-0.190774,-0.287006,-0.207804,-0.183574,-0.271166,-0.216834,-0.208688,-0.121070,-0.127241,-0.245982,-0.164803,-0.243518,-0.124481,-0.192622,-0.198165,-0.114034,-0.265752,-0.153724,-0.165378,-0.188555,-0.164369,-0.235445,-0.161990,-0.219004,-0.159916,-0.163008,-0.219892,-0.217229,-0.166869,-0.235429,-0.123761,-0.135858,-0.088740,-0.067013,-0.021605,0.009867,0.136203,0.545744,0.686085,0.680467,0.606621,0.434521,0.412275,0.226264,0.092520,-0.022212,-0.193186,-0.204224,-0.309517,-0.227459,-0.341556,-0.430249,-0.377050,-0.467854,-0.452125,-0.440547,-0.731848,-0.252819,1.614848,5.051759,6.452508,3.208944,1.190874,0.504689,0.229917,-0.135671,-0.636727,-0.731943,-0.745306,-0.832179,-0.851172,-0.929858,-0.771889,-0.944141,-0.834800,-0.862953,-0.844329,-0.842714,-0.816670,-0.845022,-0.789440,-0.939106,-0.758993,-0.899714,-0.818348,-0.892189,-0.783382,-0.764914,-0.741761,-0.722546,-0.557109,-0.614478,-0.447748,-0.446276,-0.276190,-0.201985,-0.157849,0.064442,0.175354,0.300272,0.427284,0.435408,0.638918,0.522348,0.601154,0.438807,0.458382,0.356396,0.158189,-0.004710,0.025766,-0.237965,-0.112167,-0.382807,-0.183736,-0.446167,-0.290239,-0.475362,-0.323099,-0.615338,-0.043997,-1.028870,0.000000,0.000000,0.000000,0.000000,1.000000
4.718671,4.609396,1.123830,0.823650,0.061485,0.094665,-0.691863,-0.688815,-0.849171,-0.797717,-0.935711,-0.928291,-0.891280,-0.891124,-0.976886,-0.836156,-0.948375,-0.847790,-0.898513,-0.862693,-0.857987,-0.929722,-0.888708,-0.853366,-0.941179,-0.865000,-0.922465,-0.761651,-0.833464,-0.755309,-0.681686,-0.604159,-0.600358,-0.438822,-0.447234,-0.201747,-0.282993,-0.030824,0.077763,0.215207,0.342992,0.382925,0.517766,0.554173,0.500608,0.503885,0.360487,0.408892,0.185336,0.002022,-0.014284,-0.176187,-0.219466,-0.289907,-0.354387,-0.317450,-0.469366,-0.379319,-0.473981,-0.512465,-0.383754,-0.481097,-0.425728,-0.417328,-0.451772,-0.384227,-0.474259,-0.324084,-0.402301,-0.455520,-0.333133,-0.355072,-0.314912,-0.338026,-0.364618,-0.284576,-0.347469,-0.298295,-0.273172,-0.306538,-0.246216,-0.350982,-0.354406,-0.290936,-0.324135,-0.265493,-0.368270,-0.243824,-0.230773,-0.267485,-0.242129,-0.311799,-0.283908,-0.150431,-0.177895,-0.109726,-0.201366,-0.032493,-0.019715,-0.047425,0.256750,0.450796,0.715245,0.683436,0.586873,0.624031,0.412374,0.424155,0.244335,0.104462,-0.008947,-0.158839,-0.144650,-0.226706,-0.222339,-0.187718,-0.245947,-0.229901,-0.283617,-0.257118,-0.175293,-0.526073,0.124824,2.271386,5.344596,6.482351,3.643510,1.598747,0.661953,0.426248,0.246346,-0.091607,-0.419125,-0.474828,-0.610105,-0.445894,-0.639455,-0.553755,-0.641166,-0.569728,-0.501309,-0.538827,-0.508335,-0.489031,-0.472522,-0.451726,-0.583369,-0.413590,-0.457113,-0.501432,-0.414432,-0.443263,-0.429118,-0.287252,-0.395734,-0.231293,-0.211314,-0.085974,-0.075848,0.039624,0.147269,0.222503,0.306041,0.477888,0.475322,0.722321,0.626330,0.884167,0.833827,1.005649,1.007635,0.944480,0.836742,0.811423,0.684666,0.708307,0.351323,0.550129,0.181459,0.349913,0.151327,0.205906,0.075631,0.338428,-0.029296,0.460327,-0.468061,1.000000
4.663357,4.954213,1.426193,1.016330,0.146448,0.317420,-0.317693,-0.450191,-0.575707,-0.590672,-0.761829,-0.649637,-0.807192,-0.566832,-0.771481,-0.713762,-0.706493,-0.639572,-0.624580,-0.626198,-0.741459,-0.607486,-0.741217,-0.495499,-0.612461,-0.577342,-0.667567,-0.608291,-0.457567,-0.488586,-0.548830,-0.337232,-0.392908,-0.239701,-0.209830,-0.112583,0.041600,0.069381,0.304111,0.377254,0.443176,0.636655,0.640856,0.781994,0.691886,0.910440,0.865342,0.830919,0.795994,0.570830,0.450029,0.320415,0.204753,0.128227,-0.066737,-0.069167,-0.046679,-0.166056,-0.188786,-0.122077,-0.165070,-0.205835,-0.289772,-0.148428,-0.260897,-0.190311,-0.216493,-0.291305,-0.144697,-0.147562,-0.239097,-0.053963,-0.180753,-0.056114,-0.149267,-0.091020,-0.086893,-0.102063,-0.042988,-0.119559,-0.066117,-0.086607,-0.181134,-0.054871,-0.172282,-0.049998,0.024852,-0.031459,-0.092869,-0.090566,-0.052087,-0.003109,-0.089774,-0.024609,-0.076560,-0.035319,0.013321,0.028174,0.114525,0.064524,0.149219,0.429028,0.609937,0.797370,0.592349,0.598160,0.506551,0.336782,0.254522,0.085136,-0.009428,-0.196063,-0.267673,-0.188887,-0.414822,-0.267458,-0.364602,-0.429936,-0.349472,-0.388033,-0.513376,-0.769220,-0.193378,1.824495,5.198197,6.677527,3.667750,1.406341,0.732276,0.322093,0.068225,-0.379610,-0.662371,-0.581947,-0.742861,-0.688406,-0.748264,-0.802239,-0.788248,-0.780872,-0.828537,-0.808657,-0.806455,-0.678596,-0.899733,-0.693742,-0.739377,-0.786563,-0.803341,-0.813889,-0.770311,-0.771988,-0.761930,-0.612290,-0.777924,-0.543526,-0.682126,-0.554933,-0.550166,-0.359994,-0.288415,-0.279959,-0.119990,0.022868,0.041068,0.293922,0.236964,0.457586,0.491307,0.564739,0.554208,0.658381,0.468661,0.546569,0.248790,0.276994,-0.025854,0.059060,-0.225309,-0.238229,-0.352924,-0.305752,-0.588639,-0.297497,-0.676726,-0.107834,-1.142578,1.000000
4.922040,5.447171,1.682030,1.473358,0.560445,0.655137,-0.034997,-0.181239,-0.324968,-0.264838,-0.435265,-0.289329,-0.511089,-0.380756,-0.471278,-0.422282,-0.494107,-0.437201,-0.361759,-0.459471,-0.458001,-0.292243,-0.478215,-0.397531,-0.497376,-0.403447,-0.424528,-0.423253,-0.285668,-0.371073,-0.288432,-0.231385,-0.300480,-0.146768,-0.128122,0.112628,0.030688,0.191017,0.340821,0.388558,0.561047,0.648304,0.699146,0.890590,0.884082,0.936552,0.994208,0.926408,0.877059,0.771709,0.601846,0.507376,0.335570,0.331695,0.062390,0.093513,0.027589,-0.102565,-0.087780,-0.122499,-0.054902,-0.150763,-0.204920,-0.105253,-0.233441,-0.134966,-0.130559,-0.182658,-0.123255,-0.084199,-0.052876,0.016314,-0.176023,-0.008409,-0.101325,-0.042775,-0.081970,-0.163988,-0.054087,-0.139981,-0.134545,-0.193511,-0.182890,-0.129589,-0.218257,-0.081511,-0.138403,-0.261047,-0.163039,-0.197521,-0.111328,-0.137612,-0.243214,-0.211218,-0.112950,-0.011974,-0.013811,-0.013843,0.041897,0.208341,0.613783,0.782021,0.591333,0.673285,0.446340,0.425900,0.249807,0.075395,-0.129181,-0.255824,-0.182547,-0.259000,-0.359726,-0.363126,-0.404477,-0.354930,-0.419000,-0.474294,-0.587810,-0.830534,0.086029,2.565196,5.919332,5.484333,2.077598,0.976002,0.371679,0.126392,-0.303540,-0.725139,-0.739099,-0.736795,-0.919601,-0.750999,-0.952041,-0.855850,-0.939744,-0.946526,-0.883442,-0.910262,-0.922322,-0.801779,-0.941307,-0.790886,-0.975307,-0.770520,-0.926313,-0.918046,-0.848572,-0.879822,-0.810404,-0.684438,-0.796941,-0.581448,-0.846958,-0.594199,-0.477046,-0.404789,-0.315558,-0.156376,-0.051610,0.134978,0.069802,0.409958,0.261972,0.508395,0.418950,0.403951,0.343057,0.199139,0.117908,0.096788,-0.279054,-0.164435,-0.517306,-0.377374,-0.509547,-0.378714,-0.625015,-0.502539,-0.661713,-0.337781,-0.906843,-0.172753,-1.147091,0.000000,0.000000,1.000000
4.846615,4.753021,1.299703,1.241714,0.324494,0.389769,-0.426807,-0.431862,-0.516392,-0.560282,-0.634735,-0.539330,-0.747524,-0.569226,-0.786499,-0.618215,-0.675740,-0.679358,-0.603522,-0.630902,-0.627273,-0.623906,-0.669885,-0.529087,-0.771360,-0.573993,-0.652875,-0.599395,-0.464065,-0.513131,-0.412462,-0.452634,-0.536205,-0.174123,-0.217708,-0.047332,0.037132,0.206388,0.368983,0.384464,0.576202,0.677402,0.660643,0.866317,0.641719,0.750664,0.511891,0.456549,0.416637,0.133354,0.045570,-0.077502,-0.240053,-0.123805,-0.219447,-0.205532,-0.366150,-0.289170,-0.228354,-0.380398,-0.325531,-0.226796,-0.318895,-0.189857,-0.324892,-0.201251,-0.207634,-0.138172,-0.161837,-0.209655,-0.071509,-0.150925,-0.131584,-0.101668,-0.152852,-0.046238,-0.152063,-0.143402,-0.105630,-0.267737,-0.171549,-0.167559,-0.220176,-0.086887,-0.198398,-0.108277,-0.222774,-0.181653,-0.134989,-0.194781,-0.082282,-0.045120,-0.101683,0.062103,-0.079553,0.267370,0.600611,0.758276,0.606250,0.530629,0.546530,0.272155,0.232189,0.151190,-0.207497,-0.142212,-0.337511,-0.254835,-0.295825,-0.401871,-0.353415,-0.455199,-0.480333,-0.488685,-0.726272,0.976622,4.562679,6.927635,3.878651,1.300998,0.610355,0.274967,-0.149058,-0.504087,-0.812249,-0.585692,-0.781798,-0.722229,-0.710358,-0.794643,-0.614669,-0.686110,-0.822934,-0.688068,-0.851985,-0.596116,-0.762344,-0.695111,-0.677849,-0.742126,-0.727918,-0.667727,-0.663191,-0.631772,-0.644108,-0.445743,-0.527031,-0.357149,-0.407292,-0.346741,-0.201797,-0.118021,0.031895,0.160426,0.238480,0.390646,0.438759,0.638490,0.703905,0.716885,0.873043,0.748308,0.598107,0.595979,0.311417,0.338271,-0.076446,0.133271,-0.136236,-0.056627,-0.209467,-0.136756,-0.332591,-0.048837,-0.474438,-0.130036,-0.586567,0.058473,-0.817181,0.000000,0.000000,0.000000,0.000000,0.000000,0.000000,0.000000,0.000000,1.000000
4.712851,5.436682,1.465683,1.003132,0.268003,0.190358,-0.407434,-0.563068,-0.643336,-0.499032,-0.758972,-0.492694,-0.756114,-0.516896,-0.562341,-0.671110,-0.639169,-0.666752,-0.627304,-0.518936,-0.703351,-0.498078,-0.669919,-0.592030,-0.619570,-0.529083,-0.563206,-0.530127,-0.443358,-0.362783,-0.383517,-0.228976,-0.356113,-0.124533,-0.111402,0.068299,0.159788,0.283919,0.368128,0.489879,0.568117,0.764615,0.715187,0.852906,0.881717,0.656902,0.691092,0.452975,0.420052,0.157580,0.082232,0.105542,-0.062581,-0.029865,-0.101404,-0.166744,-0.096054,-0.161529,-0.257073,-0.221191,-0.266882,-0.120314,-0.236835,-0.210733,-0.153149,-0.218158,-0.159095,-0.204723,-0.130855,-0.163436,-0.150637,-0.043019,-0.143072,-0.043010,-0.112506,-0.139851,-0.035861,-0.121078,-0.040992,0.034106,-0.108903,-0.063098,-0.061367,-0.041164,-0.054645,-0.148139,-0.034762,-0.133924,-0.047706,-0.032980,-0.051912,0.043785,0.030913,0.045026,0.084029,0.091420,0.477499,0.665936,0.779225,0.668030,0.550695,0.377793,0.258526,0.256339,-0.036204,-0.205130,-0.138777,-0.360424,-0.239195,-0.372115,-0.406752,-0.395752,-0.451683,-0.438552,-0.714161,-0.452200,1.890434,5.477809,6.259717,2.774483,0.938042,0.448937,0.096813,-0.363005,-0.627238,-0.798370,-0.676083,-0.884760,-0.763588,-0.901826,-0.805504,-0.769193,-0.816641,-0.836159,-0.750544,-0.856543,-0.747125,-0.779076,-0.799801,-0.843080,-0.759194,-0.734124,-0.813556,-0.755774,-0.631811,-0.772226,-0.607031,-0.544912,-0.431100,-0.447514,-0.367644,-0.191318,-0.048227,0.067681,0.225115,0.246646,0.497755,0.474946,0.726868,0.597681,0.664300,0.747453,0.634324,0.439704,0.346485,0.103535,0.151720,-0.208401,-0.160927,-0.339744,-0.285015,-0.371754,-0.268723,-0.530630,-0.290804,-0.594363,-0.193306,-0.674527,-0.086267,-1.022581,0.000000,0.000000,0.000000,0.000000,0.000000,0.000000,0.000000,1.000000
4.553562,4.957297,1.182851,0.854908,0.134806,0.015368,-0.567027,-0.605256,-0.742198,-0.643960,-0.851023,-0.675552,-0.895191,-0.630399,-0.793436,-0.724180,-0.769178,-0.693378,-0.803521,-0.631780,-0.784311,-0.715259,-0.794511,-0.624909,-0.751821,-0.720489,-0.629733,-0.626658,-0.681813,-0.472711,-0.473250,-0.347359,-0.415280,-0.206287,-0.095500,0.048622,0.176053,0.249386,0.386853,0.509556,0.584311,0.717218,0.556956,0.761993,0.675540,0.532963,0.396346,0.217322,0.150189,0.001759,-0.199642,-0.180530,-0.313669,-0.268752,-0.278857,-0.365638,-0.372408,-0.390847,-0.366969,-0.345805,-0.413206,-0.354729,-0.404256,-0.397462,-0.437981,-0.396122,-0.343513,-0.308646,-0.242726,-0.376190,-0.365432,-0.184554,-0.323960,-0.276147,-0.243520,-0.244668,-0.227575,-0.284094,-0.253619,-0.285339,-0.267749,-0.180990,-0.342871,-0.228167,-0.223842,-0.222510,-0.200699,-0.235316,-0.211280,-0.165392,-0.243699,-0.059423,-0.143702,0.007994,-0.024023,0.044990,0.331107,0.574615,0.680444,0.654038,0.606308,0.567932,0.300592,0.312962,0.102820,-0.157241,-0.079013,-0.300276,-0.292488,-0.275350,-0.374095,-0.297496,-0.365158,-0.328183,-0.434115,-0.669399,-0.200658,1.871118,5.333906,6.650241,3.610480,1.406041,0.663531,0.432743,0.010489,-0.324918,-0.501214,-0.588960,-0.633578,-0.640581,-0.679899,-0.561141,-0.750648,-0.550347,-0.685720,-0.728876,-0.537225,-0.540679,-0.581827,-0.519161,-0.592552,-0.457249,-0.646645,-0.514010,-0.652725,-0.497430,-0.457787,-0.533065,-0.402343,-0.376995,-0.342924,-0.212545,-0.318161,-0.125053,-0.151054,-0.004776,0.091579,0.147747,0.317282,0.463801,0.456882,0.682284,0.642338,0.857359,0.802216,0.909788,0.770124,0.686546,0.634785,0.547029,0.253274,0.344725,0.084439,0.186031,-0.145687,0.021650,-0.134138,-0.013803,-0.334687,0.102771,-0.754502,0.000000,0.000000,0.000000,0.000000,0.000000,0.000000,1.000000
4.782859,5.510286,1.651052,0.990334,0.255863,0.239961,-0.428116,-0.452170,-0.737795,-0.666356,-0.782331,-0.748049,-0.728733,-0.744519,-0.801388,-0.636477,-0.914617,-0.673964,-0.646139,-0.666868,-0.650543,-0.666845,-0.618401,-0.648799,-0.714734,-0.645714,-0.746721,-0.489687,-0.666693,-0.537486,-0.492164,-0.469507,-0.357292,-0.372314,-0.338495,-0.199925,-0.220979,-0.001328,-0.010056,0.148499,0.319939,0.348607,0.487937,0.574332,0.644850,0.766494,0.731822,0.786148,0.577385,0.575729,0.500348,0.260321,0.194115,0.113455,0.014812,-0.065374,-0.225756,-0.100504,-0.215273,-0.260814,-0.248082,-0.343289,-0.259036,-0.354979,-0.328972,-0.351148,-0.421597,-0.239249,-0.276496,-0.362594,-0.240773,-0.297156,-0.236150,-0.280172,-0.259520,-0.219654,-0.262534,-0.198104,-0.247918,-0.212049,-0.167837,-0.272818,-0.191034,-0.213569,-0.278885,-0.271290,-0.289256,-0.121667,-0.243061,-0.206906,-0.199120,-0.230716,-0.107193,-0.243150,-0.136510,-0.062482,-0.100653,0.015750,-0.005253,0.192450,0.473259,0.602516,0.702019,0.544075,0.507186,0.432129,0.307671,0.340945,0.074309,-0.067591,-0.098357,-0.218022,-0.200659,-0.348135,-0.280509,-0.317434,-0.407334,-0.313915,-0.450371,-0.497986,-0.649189,-0.082069,2.242313,5.300867,6.210392,3.436010,1.286036,0.660190,0.332707,0.077945,-0.249783,-0.620845,-0.491932,-0.747392,-0.625505,-0.643697,-0.690167,-0.695255,-0.622655,-0.722432,-0.647984,-0.737446,-0.637209,-0.765098,-0.623702,-0.714080,-0.725458,-0.588961,-0.686678,-0.727110,-0.625877,-0.707970,-0.534976,-0.641071,-0.495410,-0.514459,-0.474599,-0.402401,-0.348732,-0.326243,-0.156840,-0.153281,0.099477,0.036067,0.270491,0.316611,0.456887,0.569337,0.677459,0.670348,0.864414,0.706930,0.800974,0.559933,0.645447,0.380496,0.288541,0.150328,0.099591,-0.122747,0.116409,-0.303122,0.053397,-0.411396,0.181369,-0.720541,0.000000,1.000000
4.590893,5.374058,1.657158,1.024597,0.314481,0.259285,-0.177807,-0.494030,-0.629317,-0.605539,-0.808665,-0.579781,-0.764729,-0.698541,-0.708497,-0.687668,-0.744168,-0.706564,-0.743961,-0.708818,-0.774849,-0.633665,-0.836040,-0.633433,-0.677794,-0.765992,-0.692800,-0.712337,-0.652142,-0.600772,-0.634110,-0.487476,-0.565477,-0.441321,-0.404300,-0.373082,-0.250151,-0.185588,-0.033490,0.067412,0.108474,0.328659,0.344267,0.533083,0.625641,0.656633,0.785613,0.786450,0.742513,0.684864,0.562174,0.547052,0.261482,0.217534,0.106736,-0.076348,0.008652,-0.130177,-0.171862,-0.165079,-0.214184,-0.133273,-0.238042,-0.224248,-0.222089,-0.295492,-0.213815,-0.298667,-0.208833,-0.175383,-0.212883,-0.141647,-0.176407,-0.104851,-0.106272,-0.222629,-0.114326,-0.157634,-0.010629,-0.106668,-0.205349,-0.098009,-0.161927,-0.108351,-0.123288,-0.190478,-0.089816,-0.197565,-0.083134,-0.156091,-0.162143,-0.106839,-0.133805,-0.090279,-0.064873,-0.029835,0.044787,0.116311,0.480446,0.720644,0.633700,0.646353,0.503310,0.426324,0.381517,0.246765,0.135164,-0.164126,-0.147273,-0.242983,-0.276414,-0.256680,-0.363321,-0.326588,-0.404400,-0.383210,-0.348176,-0.625561,-0.666279,0.421128,2.916391,6.093723,5.636180,2.555251,1.033576,0.499919,0.369198,-0.063008,-0.298211,-0.558227,-0.591793,-0.680909,-0.769709,-0.701294,-0.704009,-0.774904,-0.697759,-0.815019,-0.648687,-0.788068,-0.786803,-0.749209,-0.802773,-0.734836,-0.659041,-0.784717,-0.637806,-0.799717,-0.621553,-0.693490,-0.705631,-0.626626,-0.556918,-0.512880,-0.433909,-0.562123,-0.348645,-0.377344,-0.200747,-0.135641,-0.006314,0.015986,0.218616,0.309236,0.451186,0.421304,0.679319,0.648254,0.832031,0.674452,0.705544,0.580272,0.524532,0.321553,0.312071,0.021382,0.154058,-0.210969,0.009063,-0.359905,-0.024325,-0.363163,0.022777,-0.822222,0.000000,0.000000,0.000000,1.000000
4.763424,4.764082,1.321055,0.967267,0.348536,0.320442,-0.303545,-0.344786,-0.685094,-0.548206,-0.828262,-0.691787,-0.725792,-0.743581,-0.748953,-0.763129,-0.753919,-0.677537,-0.871437,-0.719066,-0.825346,-0.771253,-0.669191,-0.760039,-0.695461,-0.734032,-0.730695,-0.607765,-0.765890,-0.625314,-0.592005,-0.512502,-0.434737,-0.521163,-0.419971,-0.318590,-0.265630,-0.084318,-0.025436,0.075350,0.190515,0.376913,0.479825,0.511526,0.682788,0.780212,0.860954,0.861182,0.743497,0.751365,0.585897,0.472220,0.356667,0.162768,0.143313,-0.045054,-0.070065,-0.162162,-0.190767,-0.093272,-0.244617,-0.252081,-0.266472,-0.280772,-0.219315,-0.342281,-0.256902,-0.247625,-0.333272,-0.245334,-0.330645,-0.262694,-0.202709,-0.285186,-0.177500,-0.198940,-0.138950,-0.109748,-0.124850,-0.084165,-0.142597,-0.109425,-0.133537,-0.185259,-0.108687,-0.172022,-0.094838,-0.115044,-0.130442,-0.116655,-0.197080,-0.101673,-0.012763,-0.088935,0.009428,0.015111,0.067267,0.107797,0.525275,0.856688,0.695971,0.689771,0.603730,0.428560,0.481555,0.228302,0.135100,-0.104386,-0.180925,-0.246956,-0.309007,-0.321320,-0.317444,-0.383220,-0.285165,-0.441337,-0.615262,-0.619234,1.114827,4.716220,6.799929,3.728273,1.356727,0.750190,0.417310,0.048068,-0.403381,-0.619061,-0.632883,-0.680365,-0.715393,-0.742977,-0.746664,-0.711102,-0.710116,-0.853348,-0.630577,-0.782085,-0.753032,-0.706379,-0.788431,-0.761783,-0.762613,-0.776166,-0.731755,-0.775777,-0.600420,-0.733546,-0.601388,-0.586674,-0.588143,-0.475626,-0.399935,-0.367029,-0.152084,-0.198711,0.069772,-0.044253,0.253183,0.369897,0.458475,0.497138,0.578384,0.582635,0.796715,0.646196,0.800341,0.526256,0.600822,0.377875,0.321591,0.092453,0.088495,-0.110563,0.031241,-0.296886,0.002741,-0.347640,-0.004098,-0.379654,0.031442,-0.787988,0.000000,0.000000,0.000000,0.000000,0.000000,1.000000
4.811802,5.167013,1.355617,1.215388,0.395150,0.431402,-0.341549,-0.342325,-0.612219,-0.435081,-0.670357,-0.521745,-0.692018,-0.521215,-0.621428,-0.655289,-0.598376,-0.538117,-0.717099,-0.499303,-0.705666,-0.583345,-0.673639,-0.603012,-0.641527,-0.608511,-0.535505,-0.525916,-0.561179,-0.389903,-0.516971,-0.328226,-0.311752,-0.228173,-0.084570,-0.038423,0.112753,0.152326,0.244818,0.547379,0.510156,0.664075,0.648445,0.732751,0.851813,0.843772,0.853011,0.773304,0.641638,0.634855,0.391281,0.339344,0.152881,0.118848,0.073256,-0.026659,-0.027457,-0.020221,-0.101907,0.022825,-0.167024,-0.089510,-0.156744,-0.141827,-0.068140,-0.136418,-0.090683,-0.097953,-0.144238,-0.025902,-0.095523,0.008726,-0.070206,-0.008908,0.034637,-0.066379,-0.013777,-0.060060,-0.072033,-0.037220,-0.135561,-0.032052,-0.078721,-0.054383,-0.065453,-0.135182,-0.124117,-0.082030,-0.108867,-0.002073,-0.066583,-0.033655,-0.223441,-0.069922,-0.016355,-0.014270,0.169625,0.131188,0.396692,0.735604,0.746821,0.779285,0.633304,0.614684,0.479176,0.300758,0.285534,0.011212,-0.056031,-0.195013,-0.236827,-0.196363,-0.292449,-0.248067,-0.259465,-0.290297,-0.333274,-0.529611,-0.163295,1.808860,5.185433,6.584004,3.116882,0.970179,0.411355,0.011205,-0.138662,-0.558574,-0.646499,-0.674999,-0.812444,-0.729432,-0.837575,-0.734921,-0.825001,-0.833276,-0.800353,-0.911654,-0.866149,-0.741207,-0.993250,-0.785814,-0.899775,-0.807076,-0.897875,-0.864588,-0.818271,-0.910440,-0.813930,-0.710249,-0.741760,-0.602117,-0.706324,-0.539806,-0.487769,-0.398030,-0.311840,-0.214343,-0.147654,-0.016320,0.045439,0.173962,0.125006,0.406724,0.247784,0.407253,0.331112,0.334690,0.204239,0.220806,-0.120612,0.026420,-0.241368,-0.145948,-0.430170,-0.189955,-0.505590,-0.375283,-0.573865,-0.273446,-0.793130,-0.172256,-1.160318,0.000000,0.000000,0.000000,0.000000,1.000000
4.925466,4.943738,1.157398,1.074492,0.160555,0.362471,-0.300150,-0.264881,-0.442969,-0.432874,-0.521985,-0.458650,-0.537960,-0.435504,-0.619105,-0.450133,-0.638034,-0.578171,-0.475362,-0.627591,-0.590272,-0.523432,-0.599832,-0.517979,-0.656847,-0.468833,-0.649646,-0.525837,-0.458966,-0.427313,-0.366318,-0.360700,-0.342245,-0.159841,-0.178573,-0.006508,0.017598,0.148479,0.215353,0.333675,0.423503,0.421415,0.613509,0.607059,0.605479,0.687894,0.580685,0.550218,0.489700,0.268036,0.234878,0.163381,0.064287,-0.020536,-0.032008,-0.043937,-0.227070,-0.139629,-0.158214,-0.240502,-0.249259,-0.242555,-0.242432,-0.236580,-0.339356,-0.212561,-0.343073,-0.160457,-0.257675,-0.176768,-0.164894,-0.285972,-0.174826,-0.188040,-0.231418,-0.100139,-0.213149,-0.128387,-0.117635,-0.259042,-0.159752,-0.264484,-0.226420,-0.223141,-0.262186,-0.210495,-0.331175,-0.203812,-0.280141,-0.287320,-0.224079,-0.288566,-0.217984,-0.234403,-0.186115,-0.016545,-0.118465,0.010582,0.006259,0.122299,0.593651,0.649638,0.657917,0.524574,0.349889,0.310088,0.117677,0.012126,-0.200136,-0.240953,-0.389104,-0.406002,-0.354280,-0.408497,-0.469574,-0.404670,-0.560423,-0.694804,-0.592483,1.490083,5.362407,7.053836,3.398144,0.977026,0.403090,0.127930,-0.266812,-0.555413,-0.693421,-0.657371,-0.696022,-0.714922,-0.695387,-0.687883,-0.745438,-0.672412,-0.838548,-0.644506,-0.781735,-0.674333,-0.675564,-0.745609,-0.721184,-0.740234,-0.735527,-0.650352,-0.731396,-0.602224,-0.627689,-0.602544,-0.550665,-0.419165,-0.314198,-0.233643,-0.153884,0.036354,0.013499,0.245744,0.317038,0.512995,0.494848,0.596689,0.632725,0.786305,0.684387,0.746070,0.553582,0.575850,0.256127,0.235278,0.010770,0.055493,-0.044340,-0.088125,-0.259375,-0.087792,-0.385373,-0.108661,-0.493259,-0.081352,-0.491423,-0.029424,-0.814400,0.000000,0.000000,0.000000,0.000000,1.000000
4.696685,4.807770,1.161651,0.709359,0.100683,0.176711,-0.607919,-0.510962,-0.775378,-0.630267,-0.748757,-0.697759,-0.789610,-0.790616,-0.759877,-0.659802,-0.868671,-0.683198,-0.815904,-0.687554,-0.694452,-0.761707,-0.752884,-0.696932,-0.703226,-0.579575,-0.732754,-0.580127,-0.613072,-0.500686,-0.479751,-0.405565,-0.354149,-0.240990,-0.165311,0.056139,-0.045785,0.278866,0.233739,0.377224,0.410759,0.480530,0.599155,0.567312,0.582342,0.484440,0.361416,0.345617,0.173768,0.053900,-0.005728,-0.091221,-0.136918,-0.203536,-0.213739,-0.232718,-0.353355,-0.139831,-0.371199,-0.252618,-0.287960,-0.262737,-0.232488,-0.235514,-0.253760,-0.208473,-0.205613,-0.207088,-0.230809,-0.137837,-0.145529,-0.139188,-0.120113,-0.197823,-0.068484,-0.118841,-0.179783,-0.059370,-0.233369,-0.157854,-0.121186,-0.205265,-0.200434,-0.203025,-0.151813,-0.167403,-0.307686,-0.206058,-0.258873,-0.142128,-0.167379,-0.226869,-0.208558,-0.281519,-0.210816,-0.201204,-0.247594,-0.123432,-0.168369,0.076256,0.005517,0.011403,0.239402,0.504411,0.692695,0.473386,0.428703,0.442503,0.306672,0.287801,0.129672,-0.016062,-0.164091,-0.214403,-0.159798,-0.173586,-0.207757,-0.227432,-0.326575,-0.197391,-0.287976,-0.571306,-0.320338,1.498445,5.243881,7.097813,4.286633,1.769718,0.973706,0.542921,0.125599,-0.213246,-0.444912,-0.545866,-0.538268,-0.599573,-0.554242,-0.558520,-0.629199,-0.546843,-0.723909,-0.606731,-0.632401,-0.697357,-0.590728,-0.627895,-0.599725,-0.591195,-0.679746,-0.557031,-0.647512,-0.579747,-0.534331,-0.555192,-0.491052,-0.420558,-0.364126,-0.245399,-0.241407,-0.105636,-0.199679,0.132319,0.206027,0.292660,0.403001,0.494279,0.497582,0.668319,0.651679,0.780044,0.661001,0.666216,0.461375,0.392652,0.224703,0.085299,-0.014437,-0.033301,-0.304643,-0.023821,-0.289577,-0.087342,-0.425213,-0.159725,-0.387303,0.044611,-0.726520,1.000000
4.705165,4.297918,0.753106,0.830625,0.033987,-0.375237,-1.008000,-0.962053,-1.205248,-1.043723,-1.310857,-1.116661,-1.313816,-1.196781,-1.215431,-1.187438,-1.219900,-1.160854,-1.245699,-1.141049,-1.225616,-1.133689,-1.165796,-1.143285,-1.131569,-1.140741,-1.050736,-0.995227,-0.992360,-0.944516,-1.032795,-0.875552,-0.868305,-0.740484,-0.606148,-0.581060,-0.345290,-0.251063,-0.153312,-0.025238,0.045316,0.230879,0.272528,0.303850,0.388640,0.352551,0.384972,0.281192,0.211190,0.118321,-0.050533,-0.029673,-0.171338,-0.194383,-0.214444,-0.242461,-0.164720,-0.262614,-0.158413,-0.192878,-0.229701,-0.161816,-0.182959,-0.193777,-0.121958,-0.231972,-0.098927,-0.141539,-0.083459,-0.042242,-0.100616,-0.032646,-0.059366,-0.043088,0.006858,-0.026508,0.042278,0.012454,0.002284,0.016892,0.012027,0.065014,0.004296,0.009604,0.052372,-0.004472,0.028808,-0.037234,0.030740,0.063311,0.014783,-0.012184,-0.009323,-0.000010,0.105674,0.085356,0.194375,0.116569,0.343571,0.569360,0.766434,0.895189,0.724564,0.698683,0.533767,0.374239,0.505936,0.164657,0.085624,0.044780,-0.012449,0.010160,-0.061923,-0.098373,-0.081487,-0.080922,-0.025393,-0.202424,-0.348219,-0.181928,1.559278,4.751424,6.368733,3.794485,1.788961,1.049976,0.885402,0.422632,0.091473,-0.293039,-0.258682,-0.311911,-0.390571,-0.407670,-0.443716,-0.524404,-0.343985,-0.531656,-0.413718,-0.441996,-0.456264,-0.444878,-0.452229,-0.425653,-0.462620,-0.524941,-0.368052,-0.514792,-0.362962,-0.489808,-0.408692,-0.332687,-0.344918,-0.268363,-0.133607,-0.185190,0.045308,-0.073884,0.075809,0.115400,0.314375,0.393939,0.484695,0.536965,0.697081,0.632792,0.843389,0.678294,0.857078,0.689616,0.720600,0.648233,0.541536,0.385593,0.425583,0.057177,0.195887,-0.174241,0.123788,-0.287258,-0.018940,-0.402415,0.055868,-0.834627,0.000000,0.000000,0.000000,1.000000
4.949385,4.104946,0.437431,0.802075,-0.077237,-0.209508,-0.941060,-0.817489,-1.006065,-0.965909,-1.061811,-1.041813,-1.078218,-0.968199,-1.140619,-0.960788,-1.082975,-0.994688,-1.043985,-1.015911,-0.984435,-1.092265,-1.049200,-0.890364,-1.019608,-0.825623,-0.996095,-0.941634,-0.857516,-0.800024,-0.671135,-0.692467,-0.581919,-0.424946,-0.400770,-0.203367,-0.158416,0.008183,0.113073,0.132884,0.311357,0.293357,0.342550,0.472873,0.400185,0.450554,0.293417,0.184490,0.066101,-0.050275,-0.102693,-0.244275,-0.215191,-0.237281,-0.335935,-0.225842,-0.315993,-0.319283,-0.256613,-0.359768,-0.189020,-0.206996,-0.180878,-0.169652,-0.188604,-0.067745,-0.095267,-0.030448,-0.026485,-0.050181,0.032012,-0.120889,-0.032546,-0.068853,-0.061145,0.032208,-0.070103,-0.001463,-0.062569,-0.154412,0.039708,-0.114080,0.025542,-0.048214,-0.092929,-0.002651,-0.054659,-0.111284,-0.076668,-0.107486,-0.033096,-0.053866,-0.013522,-0.106176,-0.088202,-0.022191,-0.015852,0.013850,0.148969,0.080663,0.129707,0.217410,0.691140,0.993635,0.807865,0.798720,0.536224,0.492703,0.502989,0.235710,0.183143,-0.081070,-0.034584,-0.065181,0.000601,0.005239,-0.252962,-0.039054,-0.066729,-0.242767,-0.362379,-0.341619,1.627113,5.211819,7.097667,3.505592,1.364579,1.287675,0.771267,0.275906,-0.141044,-0.393150,-0.334684,-0.478974,-0.512525,-0.512677,-0.554727,-0.564956,-0.513487,-0.573045,-0.445190,-0.582422,-0.459146,-0.566820,-0.530104,-0.527279,-0.585896,-0.573634,-0.589975,-0.640930,-0.476602,-0.588707,-0.390481,-0.462567,-0.323796,-0.295557,-0.289197,-0.133216,-0.026925,-0.001527,0.206375,0.181235,0.452558,0.390589,0.608792,0.549306,0.659253,0.681572,0.779271,0.596501,0.601194,0.294352,0.405611,0.105054,0.227139,0.049614,0.113865,0.018343,0.098763,-0.129924,0.169039,-0.246504,0.195864,-0.310750,0.313562,-0.550270,0.000000,1.000000
5.084746,5.231148,1.081433,1.448112,0.585514,0.397110,-0.339917,-0.424078,-0.630799,-0.512440,-0.793884,-0.604260,-0.799844,-0.690172,-0.756739,-0.698939,-0.701150,-0.677323,-0.735268,-0.647226,-0.802377,-0.633549,-0.816511,-0.714420,-0.800956,-0.795992,-0.721984,-0.711033,-0.666916,-0.564677,-0.606483,-0.403160,-0.536221,-0.301905,-0.247353,-0.158612,-0.028569,0.044950,0.198454,0.288965,0.351557,0.468392,0.416645,0.575433,0.569824,0.528494,0.406408,0.238866,0.166166,0.069472,-0.048999,0.009436,-0.160459,-0.046197,-0.158295,-0.188450,-0.137007,-0.232866,-0.202816,-0.193111,-0.248927,-0.108233,-0.187951,-0.039866,-0.066525,-0.040876,-0.064378,-0.088769,-0.022827,-0.018046,-0.051334,0.036950,-0.048709,0.014861,-0.014582,0.096610,0.037509,0.001791,-0.022717,0.031959,0.001406,-0.004007,-0.061823,0.115458,-0.034787,-0.045760,-0.061513,-0.070246,-0.006992,-0.084746,-0.038593,-0.041493,-0.090552,-0.012952,-0.099081,-0.045052,-0.109129,-0.076933,-0.000752,0.066238,0.133370,0.219604,0.128524,0.391621,0.764850,0.965083,0.881188,0.750035,0.709750,0.471184,0.432339,0.233814,-0.061803,0.050764,-0.140047,-0.093166,-0.098022,-0.167163,-0.167694,-0.341696,-0.159028,-0.390998,-0.585442,0.823946,4.397189,7.031828,3.583108,1.367094,1.150879,0.663182,0.192052,-0.418096,-0.699987,-0.676018,-0.864719,-0.803630,-0.936246,-0.865744,-0.787719,-0.902639,-0.847329,-0.774208,-0.932471,-0.780817,-0.901155,-0.789534,-0.882474,-0.859967,-0.734504,-0.881289,-0.818821,-0.752813,-0.785130,-0.579679,-0.670668,-0.555520,-0.537830,-0.402900,-0.271631,-0.215479,-0.129690,0.025017,0.040750,0.330509,0.253690,0.477298,0.399893,0.480876,0.494157,0.521072,0.400755,0.409062,0.202450,0.185994,-0.114180,0.011291,-0.181673,-0.098286,-0.249538,-0.223953,-0.282257,-0.182947,-0.413801,-0.059771,-0.570027,0.162728,-0.861545,1.000000
4.785780,4.388707,0.928405,1.102334,0.344027,0.177961,-0.597023,-0.786837,-0.919126,-0.941706,-1.053423,-1.010098,-1.131601,-0.907379,-1.091791,-1.016253,-0.971082,-1.050634,-1.021863,-1.001662,-1.041690,-0.967902,-1.111202,-0.882716,-1.043285,-1.009789,-0.943173,-0.961360,-0.829472,-0.803316,-0.815086,-0.702085,-0.682478,-0.485399,-0.457926,-0.375354,-0.240029,-0.206734,-0.000696,0.053952,0.122244,0.220833,0.151560,0.270480,0.236994,0.209023,0.142973,0.051122,-0.056270,-0.215148,-0.301652,-0.276611,-0.404544,-0.345645,-0.500495,-0.438246,-0.442380,-0.530134,-0.420910,-0.532984,-0.450495,-0.413580,-0.464696,-0.367344,-0.462204,-0.395912,-0.249090,-0.295364,-0.256385,-0.336867,-0.296092,-0.231576,-0.268756,-0.245620,-0.247913,-0.158447,-0.188316,-0.268443,-0.193344,-0.342743,-0.233861,-0.208015,-0.261685,-0.227623,-0.231291,-0.311882,-0.263328,-0.285320,-0.245943,-0.330175,-0.231250,-0.170781,-0.267120,-0.218328,-0.290769,-0.259424,-0.270623,-0.296796,-0.189510,-0.216151,-0.114369,0.053023,0.340086,0.698977,0.470982,0.449548,0.479422,0.230934,0.279130,0.208596,0.083013,-0.062044,-0.161878,-0.085920,-0.186357,-0.173881,-0.077877,-0.219195,-0.085346,-0.209387,-0.503736,-0.180163,1.747965,5.495789,6.501976,3.400062,1.672487,0.752870,0.735378,0.317439,0.037219,-0.256242,-0.359257,-0.364494,-0.316096,-0.368456,-0.309202,-0.438238,-0.305939,-0.493598,-0.389321,-0.425402,-0.479364,-0.392453,-0.295987,-0.356714,-0.349441,-0.435283,-0.279638,-0.403503,-0.176777,-0.250173,-0.223823,-0.089211,-0.161196,-0.123949,0.023501,0.007059,0.246034,0.127300,0.281264,0.496270,0.625515,0.666866,0.823768,0.827988,1.015606,0.972736,1.029503,0.935850,1.183433,0.909917,0.833558,0.768038,0.741343,0.435862,0.492428,0.329999,0.445000,0.168659,0.258609,0.190353,0.436462,0.098432,0.464894,-0.205382,0.000000,1.000000
4.790869,4.730719,0.512825,0.158373,-0.710943,-0.521150,-1.019065,-0.984219,-1.103805,-0.977521,-1.163102,-0.975985,-1.171172,-1.029804,-1.165653,-1.030600,-1.045756,-1.158995,-1.107631,-0.960333,-1.076064,-0.926042,-1.075594,-0.925366,-0.938107,-0.940601,-0.868558,-0.858191,-0.803422,-0.762789,-0.650179,-0.553440,-0.553696,-0.386556,-0.372026,-0.227063,-0.058056,-0.015416,0.142262,0.269751,0.345634,0.528619,0.465475,0.623074,0.533850,0.493392,0.409333,0.291593,0.212824,0.044308,-0.107092,-0.165108,-0.332273,-0.202304,-0.398809,-0.321513,-0.393396,-0.425102,-0.351763,-0.381010,-0.352711,-0.339917,-0.477324,-0.332790,-0.423891,-0.341976,-0.300044,-0.332853,-0.290435,-0.312146,-0.264226,-0.189253,-0.307773,-0.173967,-0.232579,-0.236600,-0.245718,-0.278569,-0.157012,-0.243817,-0.174224,-0.181164,-0.250195,-0.102994,-0.181048,-0.066885,-0.134075,-0.169019,-0.056176,-0.143163,-0.106018,-0.175199,-0.231089,-0.125482,-0.194302,-0.015804,-0.191442,-0.181933,-0.022468,-0.197169,0.018192,0.061204,-0.010846,0.336794,0.682573,0.567943,0.604762,0.526431,0.436283,0.363420,0.267565,-0.015001,-0.132599,-0.112871,-0.186309,-0.260596,-0.320340,-0.245733,-0.224393,-0.274987,-0.305587,-0.478022,-0.219531,1.567791,5.064523,6.756945,3.389860,1.274186,0.796048,0.638695,0.242213,-0.229547,-0.445603,-0.344395,-0.464811,-0.430845,-0.432781,-0.457721,-0.572987,-0.501115,-0.387450,-0.511852,-0.531151,-0.420416,-0.474019,-0.384675,-0.561546,-0.452376,-0.381943,-0.379831,-0.309330,-0.282617,-0.309911,-0.116678,-0.153821,-0.029297,-0.013559,-0.010519,0.170214,0.342147,0.430850,0.488005,0.438431,0.761344,0.726131,0.793317,0.924779,1.143621,1.048339,0.948964,0.885043,0.834351,0.589603,0.498542,0.374131,0.637989,0.269439,0.229056,0.268316,0.489626,0.207551,0.279689,-0.048172,0.373530,-0.143782,0.607247,-0.410301,1.000000
3.209968,2.285751,0.227457,0.042214,-0.240825,-0.319142,-0.749130,-0.842705,-0.873834,-0.849900,-0.928154,-0.846925,-0.922729,-0.932875,-0.977071,-0.833336,-0.933326,-0.942727,-0.896987,-0.893565,-0.872467,-0.925239,-0.945219,-0.829832,-0.872395,-0.799545,-0.795980,-0.799421,-0.716956,-0.678784,-0.665188,-0.585163,-0.638783,-0.511583,-0.413811,-0.328349,-0.293110,-0.320777,-0.169931,-0.098232,-0.129192,-0.013306,0.094332,0.122784,0.004384,-0.006577,-0.057497,-0.170387,-0.276618,-0.349486,-0.234034,-0.329456,-0.497828,-0.418267,-0.332474,-0.390459,-0.462528,-0.557207,-0.474421,-0.539986,-0.462355,-0.444437,-0.602526,-0.463178,-0.434681,-0.437769,-0.531925,-0.538317,-0.499534,-0.624635,-0.601089,-0.528717,-0.467041,-0.510700,-0.505614,-0.521775,-0.600943,-0.473972,-0.381012,-0.542295,-0.513515,-0.555372,-0.466401,-0.498604,-0.579983,-0.561369,-0.600206,-0.620300,-0.466478,-0.637044,-0.464587,-0.525924,-0.534573,-0.461596,-0.514897,-0.529083,-0.493253,-0.517242,-0.428112,-0.540156,-0.467519,-0.571320,-0.225612,0.014295,-0.112417,-0.135755,-0.243795,-0.138158,-0.175922,-0.450652,-0.473446,-0.333067,-0.350259,-0.417720,-0.607191,-0.504696,-0.288214,-0.426953,-0.389857,-0.597767,-0.770080,-0.674250,1.084163,4.168115,5.778123,3.472684,0.926545,0.553207,0.294223,-0.040081,-0.251423,-0.413100,-0.222993,-0.308546,-0.382983,-0.386578,-0.349044,-0.373878,-0.394474,-0.396190,-0.255303,-0.382411,-0.332705,-0.331490,-0.298291,-0.301541,-0.244428,-0.128508,-0.125545,-0.214801,-0.007875,0.076452,0.096748,0.175024,0.226064,0.296453,0.427190,0.472767,0.632300,0.695923,0.954423,1.016004,1.174543,1.327283,1.418320,1.560111,1.658003,1.775484,1.935482,1.948086,2.017124,1.709394,1.791701,1.696813,1.568336,1.500782,1.487207,1.469860,1.537821,1.389592,1.563005,1.490653,1.663672,1.472691,1.735750,1.422465,0.000000,1.000000
2.750977,4.411835,2.204805,2.198660,1.463326,1.414765,0.863936,0.873361,0.717712,0.728992,0.640309,0.697489,0.621327,0.706263,0.466423,0.608134,0.453683,0.573840,0.480267,0.558129,0.520412,0.467787,0.409165,0.546895,0.394947,0.568940,0.417643,0.463928,0.510688,0.517302,0.514696,0.599897,0.601960,0.621537,0.597547,0.825968,0.811771,0.900773,0.913492,1.166029,1.372108,1.354655,1.401847,1.526618,1.511393,1.647971,1.421834,1.421273,1.288415,1.002913,0.920273,0.771709,0.652046,0.729229,0.507242,0.423441,0.306676,0.379214,0.417100,0.330500,0.241423,0.186542,0.201978,0.194846,0.121428,0.165616,0.097619,0.098234,0.006604,-0.004404,0.074095,0.004353,-0.085577,0.064953,0.012505,0.093449,-0.028484,0.102027,0.030838,-0.121592,-0.018837,-0.104171,-0.102112,-0.086974,-0.210818,-0.022193,-0.232581,-0.170708,-0.186720,-0.221100,-0.135354,-0.219201,-0.182653,-0.099960,-0.242078,-0.200645,-0.283488,-0.194351,-0.227694,-0.241294,-0.165711,-0.188925,0.055883,0.139213,-0.023217,0.015391,-0.111055,-0.252566,-0.288338,-0.254822,-0.394656,-0.471823,-0.547875,-0.564015,-0.702849,-0.567812,-0.754719,-0.837732,-0.815215,-0.755293,-1.042228,-1.328815,-0.572361,1.952828,3.386845,3.613261,2.186385,0.357100,0.035679,-0.456853,-0.637859,-1.069022,-1.034207,-1.066165,-1.141703,-1.116139,-1.139099,-1.223246,-1.230732,-1.286890,-1.207153,-1.291934,-1.206589,-1.244914,-1.399837,-1.292357,-1.401550,-1.369044,-1.243446,-1.296514,-1.240376,-1.361544,-1.267534,-1.250155,-1.289676,-1.123772,-1.123235,-1.020646,-0.968289,-0.897050,-0.705584,-0.546640,-0.510315,-0.282726,-0.065393,-0.002947,-0.017550,0.128846,0.238650,0.066179,-0.156692,-0.163113,-0.509759,-0.636586,-0.917507,-0.836917,-1.060984,-1.120194,-1.202578,-1.089262,-1.220382,-1.172428,-1.365871,-1.265118,-1.433612,-0.886965,-1.735161,1.000000
3.329155,5.140029,2.118668,1.685554,0.946766,0.875920,0.322836,0.258638,0.205228,0.214881,0.093187,0.222179,0.031318,0.100193,-0.044496,0.074997,-0.006611,0.034069,0.068845,-0.072059,-0.097594,-0.032173,-0.194022,0.037431,-0.038696,0.043857,-0.057923,-0.049172,0.041323,-0.022297,0.080075,0.181093,0.192737,0.331391,0.332730,0.526280,0.708012,0.797282,0.915443,1.221809,1.320736,1.334235,1.392991,1.589302,1.511314,1.230735,1.195279,0.951009,0.702652,0.485697,0.394933,0.364870,0.124066,0.135958,0.113807,0.155699,0.039868,0.024878,-0.089998,-0.067832,0.130859,0.065819,-0.149793,-0.102738,-0.045303,-0.013912,-0.146010,-0.133763,0.038275,-0.047834,-0.068133,-0.052105,-0.034899,0.107645,-0.027557,-0.146033,-0.039676,-0.104894,0.000290,-0.109567,-0.016365,-0.023378,-0.205952,-0.147342,-0.235869,-0.072213,-0.256409,-0.235492,-0.206827,-0.305600,-0.219904,-0.282278,-0.246319,-0.244048,-0.159422,-0.330681,-0.217668,-0.072003,0.243771,0.104684,0.063614,0.162148,0.156696,0.033535,-0.062667,-0.155187,-0.223093,-0.463047,-0.380672,-0.473776,-0.438430,-0.443639,-0.530839,-0.443253,-0.615520,-0.771136,-1.147781,-0.671713,2.095955,4.585305,5.072876,3.522127,1.153806,0.754527,0.100914,-0.298495,-0.689857,-0.721643,-0.872643,-0.932918,-0.938808,-1.007983,-1.088514,-1.000375,-1.003572,-1.069144,-1.170264,-1.198534,-0.998026,-1.069631,-1.110058,-1.181311,-1.158716,-1.097582,-1.202089,-1.108841,-1.138144,-1.058040,-0.992130,-1.020031,-0.928823,-1.037179,-0.851217,-0.707232,-0.692047,-0.614159,-0.446026,-0.404210,-0.133715,-0.073943,0.107442,0.180724,0.318763,0.489863,0.399759,0.346673,0.210747,-0.030645,-0.031211,-0.503009,-0.585149,-0.730388,-0.700076,-0.864087,-0.862491,-0.895892,-0.897419,-1.108692,-0.767616,-1.148972,-0.763468,-1.448140,0.000000,0.000000,0.000000,0.000000,0.000000,1.000000
3.616045,5.368427,2.164280,1.804223,1.035776,0.783512,0.234315,0.254341,0.051560,0.045830,-0.047337,-0.003059,-0.178255,-0.060098,-0.084911,-0.083241,-0.216041,-0.245562,-0.134293,-0.064254,-0.196885,-0.177325,-0.270331,-0.119245,-0.264703,-0.169474,-0.198609,-0.139557,-0.068877,-0.078393,-0.022206,-0.063680,-0.013392,0.212722,0.196951,0.277330,0.402871,0.482951,0.655426,0.811499,0.884438,1.053166,1.078385,1.326536,1.234906,1.207735,1.090171,0.875276,0.838108,0.518481,0.281993,0.252729,0.163656,0.143499,0.002700,0.088271,-0.006044,-0.095857,0.028071,-0.029649,-0.075626,-0.067209,-0.026089,-0.117148,-0.229896,-0.108094,-0.229794,-0.195483,-0.100653,-0.197917,-0.144133,-0.095670,-0.195909,-0.125028,-0.113724,-0.053859,-0.109491,-0.166948,-0.021031,-0.082866,-0.094244,-0.124228,-0.133685,-0.066867,-0.126516,-0.032123,-0.187771,-0.106954,-0.209874,-0.236046,-0.233187,-0.095349,-0.307138,-0.119319,-0.253084,-0.246188,-0.209098,-0.149416,-0.115864,-0.186178,-0.140738,-0.110681,0.032322,0.265155,0.163428,0.247913,0.076804,0.132255,0.111159,0.009505,-0.065143,-0.191260,-0.365311,-0.312886,-0.362963,-0.321583,-0.463990,-0.336163,-0.363400,-0.449196,-0.540749,-0.849284,-0.608744,1.299937,4.343031,5.813842,4.510601,1.907954,1.054660,0.524047,-0.037374,-0.404746,-0.638963,-0.592674,-0.736906,-0.742209,-0.965794,-0.851007,-0.847871,-0.971599,-0.901725,-0.928337,-1.022764,-1.011958,-1.053516,-0.974760,-1.086733,-1.047056,-1.052666,-1.056888,-1.058010,-1.110586,-1.044552,-0.986112,-1.055029,-0.892138,-0.933707,-0.889879,-0.860312,-0.774436,-0.660488,-0.620600,-0.492320,-0.319901,-0.224449,-0.040880,-0.034001,0.242407,0.280404,0.377633,0.451053,0.425278,0.290449,0.223721,-0.057406,-0.135025,-0.484334,-0.428051,-0.757204,-0.712216,-0.818137,-0.732775,-0.936180,-0.814542,-1.100573,-0.605737,-1.541548,1.000000
4.800413,5.017086,2.024223,1.625634,1.033852,1.687461,-0.231441,0.128281,-0.097467,0.132956,0.735895,-0.101000,-1.207348,-1.034824,0.673853,0.631893,-0.117550,-0.617918,-0.523625,-0.233995,-0.308878,0.039893,-0.191070,-0.281845,-0.743280,0.167521,0.368357,-0.386420,-0.471872,-0.063523,-0.161050,-0.018460,0.030651,-0.286188,0.481261,0.246001,0.680870,0.483974,0.313724,-0.039991,0.584133,1.071035,0.911313,0.447723,0.560414,1.072819,0.820013,0.378105,-0.111568,-0.039794,0.886287,-0.076847,-0.525906,-0.067814,-0.560991,-0.108963,0.754601,-0.653284,-0.494463,0.814097,0.159522,-0.643177,0.256412,0.405201,-0.185847,-0.053030,-0.638360,-0.208960,0.241138,0.127184,-0.577332,-0.495767,0.563051,0.093013,-0.505475,-0.848985,0.532458,0.405735,-0.078587,-0.553035,-0.965528,0.428250,0.218246,-0.565386,-0.601755,0.326400,0.133048,0.120981,-0.281352,-0.447815,-0.087114,-0.641158,0.355059,-0.218994,-0.472132,-0.076521,-0.144958,-0.412520,0.228591,0.531609,-0.067073,0.027088,0.160610,0.173103,-0.070462,-0.328017,-0.347950,-0.632758,-0.480567,-1.143681,-0.710404,-0.409602,-0.750369,-1.018377,-0.681965,-0.689729,-1.197959,-1.171041,0.443694,3.654009,5.573576,3.510516,1.788858,0.963128,-0.052349,-0.450577,-0.268759,-0.793746,-1.051249,-0.619809,-1.017751,-1.659284,-0.963142,-0.832370,-0.905126,-1.137719,-1.450908,-0.665378,-0.721666,-0.958631,-0.496689,-1.192578,-1.217799,-1.036553,-0.553466,-0.553012,-0.574493,-0.653419,-0.573856,-0.465044,-0.381032,-0.471204,-0.273547,-0.378877,0.001721,0.042493,0.041484,-0.186681,0.318629,0.628947,0.770224,0.602896,0.559319,0.513726,0.584500,-0.072279,0.520513,0.547195,-0.037619,-0.161574,0.235369,-0.479560,-0.376764,-0.350153,-0.098528,-0.745744,-0.121762,-0.536173,-0.208666,-0.552409,-0.175729,-0.757050,0.000000,0.000000,0.000000,0.000000,0.000000,1.000000
3.851309,4.192359,1.541505,1.103418,-0.180015,-0.540243,-0.541365,-0.755765,-1.326041,-0.822413,-1.054904,-1.766353,-1.362724,-0.926082,-1.134844,-1.164886,-1.679779,-1.029059,-0.777161,-1.198223,-0.711593,-1.170074,-1.472250,-1.257339,-0.874729,-0.674870,-0.784397,-0.794957,-0.809926,-0.670343,-0.571827,-0.652159,-0.502278,-0.548788,-0.319285,-0.119010,-0.137644,-0.332927,-0.086534,0.395529,0.537685,0.476281,0.369583,0.299534,0.447398,-0.093300,0.029133,0.506120,-0.055644,-0.413384,-0.004734,-0.394906,-0.687184,-0.531860,-0.326085,-0.707661,-0.622621,-0.423977,-0.675047,-0.441685,-0.686373,-0.501832,-0.288535,-0.407145,-0.432346,-0.340715,-0.355519,-0.439763,-0.525968,-0.732517,-0.282719,0.453695,0.158231,-0.392178,-0.629553,-0.221668,-0.106712,0.030706,-0.276474,-0.433651,-0.014476,0.016667,-0.081377,0.124238,-0.213819,0.150142,0.240333,-0.002938,-0.146377,-0.030526,0.080273,0.290080,0.104853,0.182384,0.701787,0.985635,0.557243,0.052310,0.295686,0.775939,0.561833,-0.018241,-0.017196,0.553969,0.243416,0.024944,-0.147316,-0.262412,-0.117998,0.676950,0.422403,-0.170828,-0.851148,-0.107309,2.459579,5.747282,5.875134,3.046095,1.797511,1.034551,0.741125,0.448685,-0.070297,-0.431789,-0.124229,0.009568,-0.403778,-0.571830,0.041222,-0.195686,-0.444688,-0.735176,-0.050444,-0.241738,-0.317471,-0.075337,-0.611424,-0.257596,0.256969,-0.068956,-0.622480,-0.493357,-0.242085,-0.245191,0.226653,-0.069934,-0.126399,-0.056788,-0.486814,-0.219381,0.428573,0.437235,0.455060,0.114104,0.157838,0.552897,0.682658,0.621510,0.582515,0.556228,0.608880,0.593535,0.872666,0.430300,0.431279,0.291981,0.367239,-0.042381,-0.041251,-0.070249,-0.025780,-0.177203,0.104933,-0.178622,-0.083919,-0.305507,0.349136,-0.304226,0.000000,0.000000,0.000000,0.000000,0.000000,0.000000,0.000000,0.000000,0.000000,1.000000
4.750622,5.148151,2.163276,1.869303,0.951608,1.027306,0.330453,-0.030365,-0.093495,0.352030,0.032154,-0.364225,0.066366,0.273299,-0.120913,-0.417157,-0.155036,0.305418,-0.231118,0.254619,-0.191257,-0.256344,0.390291,0.451873,-0.199792,-0.386733,-0.026411,-0.036250,0.316037,0.430240,0.047640,0.278737,-0.061262,-0.210134,0.495463,0.766569,0.752490,0.579763,0.317861,0.686618,0.974207,0.947019,0.917887,0.831412,0.930942,0.831155,1.128478,0.949728,0.681586,0.654408,0.629750,0.460554,0.157454,0.240725,0.226689,0.142025,0.242476,0.269764,0.099892,0.056757,0.266150,0.444971,0.294785,0.078831,0.134827,-0.045274,-0.027023,-0.086447,0.078169,0.318932,0.013090,-0.332360,-0.155776,0.183350,0.123367,0.005860,-0.017310,-0.148189,-0.214389,-0.292724,-0.193726,-0.159860,-0.298519,-0.411700,-0.306787,-0.336167,-0.382321,-0.245007,-0.456533,-0.207403,-0.245686,-0.552537,-0.375099,-0.125883,-0.180623,-0.441932,-0.295472,0.089333,0.496903,0.494091,-0.011814,-0.079135,-0.109553,-0.119393,0.075324,-0.151269,-0.320723,-0.637170,-0.794873,-0.449460,-0.262668,-0.324063,-0.558439,-0.996263,-0.463934,-0.383038,-0.904161,-0.500728,1.837784,5.503641,4.979965,1.665097,1.126827,0.503630,0.141177,-0.706122,-0.682577,-0.826193,-1.085235,-0.840291,-0.738948,-0.967048,-1.055551,-1.260227,-0.728326,-1.034783,-0.970078,-0.737959,-0.924334,-1.548456,-1.222216,-0.659595,-0.558063,-0.840162,-1.012998,-1.092284,-0.982124,-0.778739,-0.767098,-0.875227,-0.984308,-1.222361,-0.897717,-0.658222,-0.661423,-0.751052,-0.336047,-0.353296,-0.581464,-0.496938,-0.084647,-0.327804,0.004090,0.054900,0.480479,0.110322,0.072842,-0.128051,-0.056919,-0.085881,-0.206857,-0.422441,-0.292560,-0.626898,-0.442567,-0.916634,-0.349092,-0.736908,-0.442682,-0.937030,-0.421734,-1.291745,0.000000,0.000000,0.000000,0.000000,0.000000,1.000000
4.705482,4.214774,1.454321,1.621076,0.679313,0.336611,-0.441970,-0.056220,-0.657717,-0.415223,-0.290189,-0.341795,-0.558774,-0.730275,-0.509529,-0.281399,-0.681836,-0.237293,-0.341334,-0.813518,-1.075841,-0.272658,-0.098110,-0.166728,-0.544081,-0.542488,-0.619638,-0.309359,-0.287342,-0.323587,-0.464234,-0.676286,-0.601111,-0.177218,-0.160386,-0.248528,-0.001170,0.258925,-0.041973,-0.073393,0.350006,0.273438,0.379026,0.599501,0.882209,0.854183,0.515510,0.536005,0.350766,0.537372,0.299332,0.169182,0.158700,-0.000528,-0.024406,-0.261755,-0.093090,0.019590,-0.186941,-0.120060,-0.322771,-0.164577,-0.233275,-0.177196,-0.116241,-0.110828,-0.254670,-0.074481,-0.155654,-0.139972,-0.033957,0.022438,-0.119367,-0.158220,0.146054,-0.000045,-0.200020,-0.195361,-0.318373,-0.037766,-0.065245,0.026656,-0.229087,-0.407104,0.057011,0.029818,-0.268694,-0.173746,-0.274583,-0.284947,-0.196141,-0.066404,-0.179558,-0.032428,0.114901,-0.215420,-0.196725,0.020719,-0.156667,-0.206347,0.223106,0.374203,0.456451,0.281017,0.124196,0.166653,0.080204,-0.044326,-0.192582,-0.110893,-0.220211,-0.306966,-0.344789,-0.374037,-0.204512,-0.262507,-0.397208,-0.275402,-0.410347,-0.581928,-0.110606,1.963634,5.449841,6.895188,4.022003,2.042211,0.920828,0.336357,-0.216044,-0.413358,-0.486720,-0.481000,-0.570064,-0.693187,-0.711862,-0.864082,-0.927451,-0.718258,-0.718099,-0.564937,-0.827767,-0.856585,-0.952718,-0.810680,-0.640548,-0.679700,-0.882927,-0.913542,-0.622603,-0.519692,-0.828554,-0.792452,-0.921591,-0.754241,-0.523494,-0.564003,-0.607375,-0.380937,-0.425975,-0.312566,-0.271660,-0.208022,-0.290557,0.020734,0.317237,0.316506,0.358105,0.513044,0.416057,0.501356,0.298442,0.432279,0.347065,0.416829,0.109213,0.176300,-0.056674,-0.052388,-0.352730,0.060919,-0.326950,-0.016654,-0.290887,0.040340,-0.893543,0.000000,0.000000,1.000000
3.998877,3.973044,1.267343,0.677066,-0.233558,-0.432361,-0.909342,-0.775842,-0.960417,-0.848183,-1.105193,-1.008261,-1.206328,-1.230345,-1.148497,-1.045895,-0.999838,-1.063274,-1.245349,-1.208944,-1.254692,-0.989553,-1.057017,-1.131776,-1.300001,-1.045642,-0.908260,-1.084329,-1.185059,-1.183168,-1.214510,-0.913821,-0.945459,-0.975739,-0.863486,-0.783568,-0.800690,-0.674730,-0.680234,-0.674780,-0.596427,-0.215325,-0.212046,-0.177885,-0.071291,-0.078968,-0.071976,-0.145309,-0.169362,-0.121709,-0.145164,-0.262225,-0.376783,-0.409755,-0.538697,-0.674454,-0.578050,-0.547698,-0.683861,-0.516425,-0.641425,-0.759208,-0.696533,-0.667467,-0.654029,-0.642663,-0.666451,-0.567775,-0.612998,-0.561276,-0.615968,-0.509870,-0.526667,-0.598577,-0.476388,-0.483710,-0.425633,-0.345660,-0.234374,-0.137848,-0.240270,-0.267900,-0.280982,-0.207529,-0.173791,-0.271487,-0.075861,-0.115047,-0.193096,-0.075032,-0.300841,-0.069339,0.044287,0.158053,0.139492,-0.020825,0.100215,0.216404,0.461460,0.594566,0.522606,0.529205,0.272491,0.346370,0.454975,0.285350,0.332982,0.195380,0.047025,0.094649,-0.061660,0.018227,0.013713,0.060068,-0.113361,-0.053038,0.116129,0.017394,-0.113748,-0.261715,0.254516,2.330400,5.010851,6.078299,3.627573,1.554288,0.666454,0.408717,0.238282,-0.015651,-0.032774,0.066623,-0.094536,-0.074852,-0.089883,-0.015748,-0.093147,-0.114811,-0.111542,-0.032154,-0.076295,-0.008957,-0.123977,-0.035961,0.000139,-0.102736,-0.012320,0.017147,0.028620,0.178289,0.092624,0.114085,0.032912,0.140781,0.207380,0.201756,0.280570,0.401419,0.483869,0.538890,0.591080,0.730635,0.679199,0.888880,0.896806,0.964237,1.030960,1.131218,1.021688,1.194416,1.003629,1.041227,0.883846,0.866020,0.684966,0.674707,0.518804,0.481396,0.453290,0.605993,0.449304,0.730628,0.228735,0.775857,0.017558,0.000000,0.000000,1.000000
4.214675,4.741508,1.054959,0.173534,-0.686035,-0.558780,-1.075822,-1.033463,-1.049788,-1.022648,-1.212608,-1.085477,-1.141768,-1.058077,-1.223135,-1.138981,-1.143132,-1.078901,-1.114136,-1.094637,-1.191250,-0.981460,-1.173783,-1.077745,-1.039449,-1.022530,-0.902197,-0.878302,-0.952012,-0.950644,-0.977227,-0.784076,-0.847969,-0.744966,-0.652050,-0.508992,-0.460585,-0.403319,-0.257530,-0.259832,-0.136710,0.003742,-0.006950,0.106545,0.210407,0.146011,0.236402,0.198067,0.075639,0.059741,-0.102523,-0.159990,-0.328977,-0.349686,-0.541250,-0.502134,-0.426419,-0.467337,-0.330516,-0.551105,-0.502349,-0.471976,-0.641235,-0.376544,-0.543951,-0.519321,-0.337782,-0.369435,-0.319856,-0.376577,-0.317815,-0.188888,-0.366969,-0.236979,-0.150322,-0.148574,-0.041266,-0.178154,-0.157484,-0.186791,-0.041666,0.002970,-0.027422,-0.003106,-0.175664,-0.139809,-0.040597,-0.185853,-0.065753,-0.032278,0.145661,0.032376,0.033236,0.163052,0.282326,0.325786,0.178745,0.363758,0.708683,0.986944,0.860988,0.677655,0.489835,0.578530,0.470393,0.368553,0.292963,0.090946,0.112155,-0.034102,-0.053083,0.012344,-0.075768,0.004074,-0.026991,0.121654,-0.047723,-0.074313,-0.108740,0.164771,2.115146,4.899857,6.463589,4.146044,1.809099,0.857906,0.271940,0.219513,0.206669,-0.119183,-0.124908,-0.150122,-0.201755,-0.198359,-0.217154,-0.199996,-0.213772,-0.312451,-0.238894,-0.209056,-0.021149,-0.076296,-0.149759,-0.192509,-0.185141,-0.104611,-0.049136,-0.239299,-0.173191,-0.251740,-0.125299,-0.140839,-0.059150,0.045059,0.119482,-0.047565,0.216121,0.289955,0.414344,0.336763,0.496407,0.483928,0.646347,0.607713,0.703626,0.627579,0.851860,0.637946,0.705118,0.486806,0.605985,0.347836,0.300214,0.042347,0.056569,-0.018302,0.201547,0.004136,0.094044,-0.301500,0.138702,-0.184807,0.170572,-0.552414,0.000000,0.000000,0.000000,1.000000
3.971716,4.321148,1.176967,0.404227,-0.503500,-0.484594,-0.598863,-0.720077,-0.959418,-0.813191,-0.994837,-0.890256,-0.998071,-0.911643,-0.972600,-1.001168,-1.030341,-0.936136,-0.849432,-0.761827,-0.917151,-0.897085,-0.961891,-0.858972,-0.808773,-0.925284,-0.956498,-0.951223,-0.931942,-0.850525,-0.864608,-0.717732,-0.656934,-0.763489,-0.646704,-0.466099,-0.416844,-0.404521,-0.358697,-0.274786,-0.217129,-0.151653,-0.145964,-0.141180,-0.028371,-0.079930,-0.155434,-0.219239,-0.265236,-0.317513,-0.532386,-0.605707,-0.780682,-0.702203,-0.670466,-0.637160,-0.759196,-0.884505,-0.837112,-0.689842,-0.892280,-0.765735,-0.962810,-0.814537,-0.747514,-0.729195,-0.676191,-0.792802,-0.832286,-0.676139,-0.722043,-0.602583,-0.625299,-0.663110,-0.641042,-0.622836,-0.539981,-0.596248,-0.665120,-0.511042,-0.467020,-0.554035,-0.542339,-0.461000,-0.537277,-0.452985,-0.415750,-0.380207,-0.319494,-0.271484,-0.269157,0.025813,0.033108,0.305329,0.260273,0.118661,0.196260,-0.008613,-0.001618,-0.076041,-0.204634,-0.108084,-0.222940,-0.194376,-0.200391,-0.341243,-0.248180,-0.244229,-0.197201,-0.159959,-0.243784,-0.329508,0.107265,2.022191,4.709758,5.385936,2.893943,1.254509,0.415689,0.128244,-0.027934,0.024044,-0.078208,0.047659,-0.009210,-0.189994,-0.133485,0.019683,-0.034683,-0.139850,-0.161576,0.078164,-0.051938,0.064328,-0.022863,0.046284,-0.004188,-0.004137,0.181959,0.115452,-0.006531,0.151819,0.115683,0.305138,0.416060,0.412386,0.374858,0.424439,0.621370,0.633909,0.699881,0.894614,0.829963,1.096909,1.232998,1.247558,1.210025,1.354994,1.415304,1.309727,1.313749,1.516534,1.181747,1.204780,0.981321,0.954699,0.827881,0.964571,0.969919,0.866193,0.808362,0.975371,0.762960,0.943026,0.658177,0.957593,0.328428,0.000000,0.000000,0.000000,0.000000,0.000000,0.000000,0.000000,0.000000,0.000000,0.000000,1.000000
4.006421,3.673068,0.425141,-0.214627,-1.065794,-0.975468,-1.190394,-1.073650,-1.167788,-0.977758,-1.389068,-1.230888,-1.151910,-1.060593,-1.297103,-1.283130,-1.072439,-1.087134,-1.094328,-1.046305,-1.117420,-1.019455,-1.181377,-0.850966,-0.951437,-1.068457,-0.972576,-0.902786,-0.813663,-0.530509,-0.618823,-0.570901,-0.634383,-0.311271,-0.320177,-0.224973,-0.016993,-0.016758,0.176282,0.488574,0.440855,0.464978,0.533625,0.730847,0.550728,0.552448,0.781164,0.502048,0.364580,0.251243,0.045882,0.033541,0.007740,0.219201,-0.051764,-0.017130,0.040872,-0.007332,-0.049955,-0.068092,-0.145935,-0.203311,-0.145044,0.051647,-0.037280,-0.011461,0.001668,0.017320,0.054068,0.224291,0.068636,0.073893,0.033042,0.193029,0.030663,0.159017,0.255370,0.204147,0.249153,0.029138,-0.087922,0.046046,0.181796,0.148328,0.157045,0.191791,0.128576,0.162660,0.377785,0.261478,0.264251,0.394464,0.667522,0.877432,0.574904,0.565943,0.504275,0.298393,0.419259,0.308850,0.006250,0.095736,0.023616,-0.022952,-0.112877,0.050148,-0.079535,-0.074337,0.063225,-0.096009,-0.223524,-0.284624,-0.189564,1.839613,4.565748,6.907246,4.487695,1.923157,0.901320,0.278350,0.146257,-0.235158,-0.468288,-0.343445,-0.438083,-0.353649,-0.335189,-0.360256,-0.384551,-0.481127,-0.530705,-0.386045,-0.459403,-0.377348,-0.463718,-0.376962,-0.603498,-0.720388,-0.608027,-0.432108,-0.390923,-0.474983,-0.521459,-0.454973,-0.523254,-0.334604,-0.372949,-0.333513,-0.316310,-0.242923,-0.235735,0.065758,0.077868,0.152352,0.160309,0.362908,0.250550,0.223328,0.446533,0.469838,0.473264,0.505779,0.294827,0.303597,0.031998,0.159769,-0.069562,-0.064640,-0.167349,-0.052997,-0.422756,-0.194949,-0.399273,-0.047740,-0.495842,-0.003345,-0.844182,0.000000,0.000000,0.000000,0.000000,0.000000,0.000000,0.000000,0.000000,0.000000,0.000000,1.000000
4.878721,5.621350,1.774439,1.142431,0.003603,0.150788,-0.441606,-0.547099,-0.623440,-0.519744,-0.632440,-0.435699,-0.599818,-0.497986,-0.687784,-0.680187,-0.623253,-0.587831,-0.608846,-0.590487,-0.608306,-0.680892,-0.953934,-0.783808,-0.681218,-0.529348,-0.665555,-0.681445,-0.663412,-0.679589,-0.577745,-0.503877,-0.556139,-0.470701,-0.454528,-0.406174,-0.191972,-0.047694,-0.065969,0.017364,0.126124,0.173502,-0.009368,0.278509,0.293325,0.323247,0.344962,0.186963,0.131471,-0.064672,-0.065504,-0.141725,-0.286392,-0.287433,-0.266777,-0.482506,-0.488537,-0.464868,-0.377923,-0.454225,-0.464245,-0.519995,-0.488418,-0.492525,-0.464228,-0.462229,-0.455894,-0.446666,-0.365391,-0.533029,-0.353179,-0.468407,-0.333698,-0.354649,-0.421333,-0.367803,-0.373566,-0.341499,-0.311606,-0.247172,-0.163674,-0.240599,-0.278921,-0.313215,-0.317865,-0.266214,-0.294087,-0.262673,-0.139404,-0.196817,-0.097945,-0.127647,0.062961,0.149386,0.295743,0.584566,0.442306,0.302650,0.306129,0.193503,0.197515,0.035403,0.072179,-0.141195,-0.325704,-0.218806,-0.139261,-0.214291,-0.210060,-0.285752,-0.108781,-0.140127,-0.286164,0.206832,2.595083,5.525527,6.143908,3.045725,1.296034,0.513103,0.344342,0.023716,-0.267621,-0.190940,-0.201628,-0.189949,-0.305840,-0.366044,-0.194342,-0.390498,-0.381070,-0.347429,-0.399733,-0.409594,-0.427122,-0.409933,-0.353699,-0.432894,-0.349488,-0.426942,-0.339063,-0.473032,-0.275680,-0.295056,-0.283043,-0.256664,-0.217482,-0.122774,-0.036242,-0.107680,0.147439,0.151914,0.394904,0.519090,0.493330,0.533138,0.589062,0.660620,0.763766,0.754615,0.778264,0.458716,0.500531,0.338872,0.284006,0.149416,0.085539,-0.165603,0.156999,-0.218190,0.025318,-0.463809,-0.019063,-0.232802,-0.037992,-0.485225,0.118869,-0.910462,0.000000,0.000000,0.000000,0.000000,0.000000,0.000000,0.000000,0.000000,0.000000,1.000000
3.604898,4.225282,1.377278,1.240072,0.528279,0.720423,0.088601,0.377561,0.163439,0.366207,0.135666,0.183742,0.178966,0.232594,0.021138,0.212190,0.051581,0.143601,0.035780,0.116906,0.098740,0.118733,0.088646,0.127430,0.097042,0.107071,0.090284,0.259386,0.135188,0.255507,0.198092,0.323816,0.369121,0.372202,0.441710,0.601169,0.622655,0.892795,0.816304,0.884894,0.885298,0.966186,1.034549,1.065616,1.096956,0.928866,0.810096,0.797516,0.678220,0.600497,0.560278,0.331378,0.471990,0.394597,0.353576,0.259382,0.164189,0.406784,0.279061,0.237430,0.234469,0.217632,0.181395,0.130657,0.155810,0.247523,0.130348,0.370951,0.210170,0.183943,0.195321,0.176408,0.158259,0.182598,0.245287,0.187375,0.146468,0.218700,0.160148,0.332814,0.203706,0.090850,0.205512,0.161386,0.152025,0.156999,0.276778,0.264497,0.115074,0.336178,0.563730,0.595481,0.409356,0.293505,0.375363,0.348220,0.062659,0.163110,0.032590,-0.107073,-0.199374,-0.215766,-0.206443,-0.318407,-0.300088,-0.080431,-0.288695,-0.218238,-0.408231,-0.470552,0.176760,2.445030,4.773007,4.762258,2.274651,0.786757,0.124763,-0.104536,-0.252959,-0.533411,-0.602678,-0.510371,-0.640887,-0.716660,-0.685545,-0.802657,-0.807569,-0.696014,-0.934483,-0.903753,-0.922823,-0.994501,-0.970895,-1.064800,-1.110741,-1.023684,-1.117115,-1.028253,-1.126932,-1.178978,-1.124009,-1.123798,-1.153531,-1.007789,-0.997342,-0.881104,-0.932347,-0.739625,-0.773400,-0.593216,-0.593531,-0.580438,-0.475171,-0.436688,-0.465855,-0.469498,-0.530240,-0.479542,-0.736182,-0.733632,-0.973491,-1.083161,-1.104470,-1.155080,-1.326913,-1.219871,-1.500007,-1.445609,-1.684646,-1.342398,-1.656861,-1.341718,-1.775049,-1.310787,-2.153436,0.000000,0.000000,0.000000,0.000000,0.000000,0.000000,0.000000,0.000000,0.000000,0.000000,0.000000,0.000000,1.000000
2.737174,4.065581,1.897825,1.812408,1.184172,1.391752,1.012511,1.075136,0.955359,1.087740,0.866964,0.991953,0.864297,0.884536,0.888549,0.894863,0.740044,0.854894,0.726192,0.791997,0.715211,0.696633,0.699933,0.718236,0.682563,0.731213,0.613547,0.677612,0.663485,0.662636,0.697802,0.760717,0.785682,0.811484,0.846987,0.920610,0.927196,1.041169,0.965975,1.074361,1.074547,1.099418,1.064732,1.056122,1.057448,0.976501,0.886788,0.844411,0.676811,0.709699,0.652832,0.580544,0.584897,0.508842,0.438642,0.382719,0.446948,0.447777,0.418635,0.430744,0.352899,0.391543,0.358352,0.269548,0.320150,0.337373,0.369790,0.328159,0.324584,0.388915,0.253357,0.295818,0.361487,0.228172,0.261314,0.101167,0.141763,0.232848,0.048923,0.065342,0.104178,0.134348,0.105867,-0.003799,0.025215,0.058809,0.085064,-0.016513,0.029755,0.069542,0.034223,-0.009419,0.209106,0.332581,0.296365,0.185439,0.170833,0.159317,0.004683,-0.040576,-0.193291,-0.268438,-0.161289,-0.235284,-0.198711,-0.383259,-0.386316,-0.387658,-0.333503,-0.397159,-0.541487,-0.647119,-0.527784,0.019549,1.190871,2.520092,2.793762,1.375398,0.483680,-0.034478,-0.274687,-0.285355,-0.464116,-0.928715,-0.913565,-0.685819,-0.767844,-0.963271,-0.919825,-0.856324,-1.011748,-1.076224,-0.997996,-1.003020,-0.994161,-1.227741,-1.115824,-1.024192,-1.199008,-1.388055,-1.182869,-1.139620,-1.323910,-1.428963,-1.183695,-1.262514,-1.450763,-1.523158,-1.227440,-1.148034,-1.307365,-1.324599,-1.098181,-1.182824,-1.090988,-1.067911,-1.016680,-1.111539,-0.975587,-0.859248,-0.875632,-1.059753,-1.123576,-1.126882,-1.038025,-1.364841,-1.204541,-1.420507,-1.531664,-1.526634,-1.292057,-1.682803,-1.492016,-1.548942,-1.368059,-1.887150,-1.259038,-2.004650,0.000000,0.000000,0.000000,0.000000,0.000000,0.000000,0.000000,0.000000,0.000000,1.000000
4.502900,5.353077,2.589109,2.318075,1.319002,1.631429,1.172968,0.715187,0.233401,0.856495,0.670470,0.510562,0.301907,0.616269,0.309280,0.223424,0.234018,0.340250,0.304167,0.081293,-0.042100,0.319293,0.062327,-0.247673,-0.166480,0.157820,-0.143283,-0.371285,-0.156247,0.024342,-0.370207,-0.528301,-0.288780,0.131609,-0.128781,-0.254749,0.018774,0.104804,0.041860,0.229418,0.224450,0.212377,0.184790,0.522578,0.525544,0.343620,0.112782,0.071460,0.248123,-0.084824,-0.190286,-0.131446,-0.561875,-0.583524,-0.278938,-0.493756,-0.739106,-0.476393,-0.415149,-0.734987,-0.735010,-0.443221,-0.745502,-0.863070,-0.491292,-0.387111,-0.680070,-0.710574,-0.533453,-0.551235,-0.539247,-0.533295,-0.708079,-0.613720,-0.531402,-0.411863,-0.339024,-0.545122,-0.454655,-0.470867,-0.445852,-0.460402,-0.619244,-0.544910,-0.450041,-0.459665,-0.500043,-0.590997,-0.476459,-0.479551,-0.559790,-0.456608,-0.323182,-0.348819,-0.342374,-0.365159,-0.214418,-0.028185,0.213248,0.024911,-0.001058,0.093284,-0.155412,-0.219607,-0.202127,-0.178339,-0.407898,-0.453460,-0.345159,-0.488723,-0.440892,-0.304178,-0.453007,-0.463563,-0.398174,-0.508194,-0.353273,-0.201118,-0.057597,0.817445,2.883635,5.117678,5.622166,3.496327,1.441633,0.538017,0.199923,-0.134116,-0.215262,-0.423576,-0.348602,-0.403991,-0.493297,-0.436669,-0.471562,-0.557689,-0.419040,-0.638941,-0.562226,-0.536238,-0.495854,-0.570498,-0.736941,-0.686835,-0.619164,-0.650734,-0.491038,-0.691203,-0.536559,-0.593539,-0.581135,-0.554282,-0.541032,-0.418469,-0.491586,-0.506276,-0.380294,-0.454897,-0.240057,-0.175484,0.040437,0.013263,-0.011511,0.155002,0.162676,0.198031,0.394350,0.344326,0.547470,0.217434,0.367073,0.158242,0.176904,-0.019165,-0.117537,-0.345314,-0.051626,-0.428806,-0.138863,-0.432395,-0.064153,-0.485459,-0.029319,-0.888039,0.000000,0.000000,0.000000,1.000000
4.379734,5.510830,2.135104,1.145923,0.292880,0.187574,-0.215385,-0.191173,-0.430845,-0.212205,-0.495046,-0.354620,-0.425760,-0.467388,-0.440098,-0.453793,-0.631624,-0.429319,-0.516479,-0.422804,-0.693028,-0.662893,-0.602514,-0.602623,-0.497429,-0.552743,-0.605172,-0.455831,-0.611542,-0.457286,-0.557012,-0.360000,-0.425564,-0.461827,-0.361016,-0.370737,-0.273555,-0.089911,0.025897,0.172036,0.016256,0.231859,0.254041,0.268907,0.464699,0.457353,0.630846,0.422222,0.392479,0.364915,0.212514,0.170633,-0.056913,-0.219886,-0.069157,-0.225197,-0.222034,-0.203950,-0.200646,-0.159245,-0.298329,-0.242740,-0.470451,-0.452657,-0.333436,-0.321962,-0.270717,-0.265414,-0.334143,-0.389543,-0.480856,-0.143278,-0.224227,-0.380670,-0.210804,-0.063629,-0.266070,-0.447166,-0.093838,-0.068130,-0.174932,-0.207845,-0.296480,-0.193898,-0.092555,-0.388558,-0.409158,-0.128109,-0.029610,-0.185265,-0.327275,-0.166630,-0.000930,-0.090401,-0.012760,-0.030168,0.384580,0.582265,0.433079,0.376591,0.327258,0.430635,0.258705,-0.205593,0.014587,0.097594,-0.159805,-0.331936,-0.153754,-0.014457,-0.349794,-0.507625,-0.255216,-0.055240,-0.110137,-0.359116,-0.360489,0.702831,2.829306,5.412639,6.312520,3.709576,1.454255,0.490124,-0.133863,-0.112741,-0.017367,-0.530393,-0.651221,-0.535825,-0.657149,-0.539601,-0.553328,-0.705949,-0.577121,-0.595390,-0.558738,-0.779244,-0.756038,-0.723421,-0.606607,-0.608970,-0.647349,-0.665661,-0.692416,-0.676911,-0.578301,-0.789876,-0.662890,-0.520867,-0.517118,-0.612552,-0.675009,-0.463739,-0.343319,-0.490554,-0.228557,-0.198858,-0.080356,-0.183825,0.074341,0.345574,0.405677,0.344190,0.431040,0.469491,0.821714,0.706729,0.595478,0.489534,0.547401,0.059533,0.187394,0.100590,0.121945,-0.199910,-0.166916,-0.265400,0.077352,-0.327109,0.043678,-0.704407,0.000000,0.000000,0.000000,0.000000,0.000000,1.000000
4.433644,4.773350,1.251252,0.683592,-0.443191,-0.223066,-0.313488,-0.536662,-1.001785,-0.662657,-0.947398,-0.721398,-0.807119,-0.865075,-0.878038,-0.757963,-0.827466,-0.910044,-1.057920,-0.899345,-0.907159,-0.765811,-0.918569,-0.836841,-0.956013,-0.875236,-0.839950,-0.935713,-0.984172,-0.703060,-0.778791,-0.764052,-0.948471,-0.698692,-0.581426,-0.669897,-0.532017,-0.366877,-0.348488,-0.332120,-0.257054,0.166210,0.167138,0.197228,0.178097,0.293044,0.533571,0.621481,0.368481,0.355486,0.323828,0.003412,-0.135880,0.011607,-0.164514,-0.250495,-0.501574,-0.357504,-0.312197,-0.285337,-0.479377,-0.368270,-0.558411,-0.430424,-0.254140,-0.545690,-0.477949,-0.440507,-0.337173,-0.217752,-0.488916,-0.232616,-0.309643,-0.338274,-0.349016,-0.387284,-0.231949,-0.152279,-0.072904,-0.155108,-0.317562,-0.256684,-0.266551,-0.084902,-0.093770,-0.308103,-0.100203,-0.096171,-0.187977,-0.228726,-0.112154,-0.133635,-0.261146,0.001249,-0.107828,-0.082007,0.192892,0.120457,0.042766,0.244180,0.396160,0.583165,0.559391,0.603489,0.542917,0.598255,0.519096,0.283344,0.147214,0.067866,-0.016766,-0.143651,-0.319218,-0.106748,-0.065661,-0.047406,-0.152128,-0.152916,-0.204232,-0.293180,-0.163210,-0.091266,0.388448,2.441412,5.388001,6.707466,3.823350,1.501011,0.818402,0.366436,0.109477,-0.051890,-0.547202,-0.613717,-0.497002,-0.261857,-0.244102,-0.414495,-0.408078,-0.358512,-0.307277,-0.264901,-0.513227,-0.367284,-0.378779,-0.360215,-0.504078,-0.404621,-0.313193,-0.361673,-0.402278,-0.614816,-0.460916,-0.247482,-0.387980,-0.216785,-0.182668,-0.360734,-0.366989,-0.328914,-0.022841,0.385933,0.047711,0.093515,0.286169,0.566833,0.641744,0.664070,0.550695,0.521706,0.801708,1.073745,0.850499,0.795611,0.593222,0.655331,0.367717,0.320144,0.214636,0.313258,0.186813,0.237173,-0.093010,0.200699,-0.236696,0.430638,-0.431210,1.000000
4.166461,3.915314,0.726859,0.373646,-0.376110,-0.406677,-0.736397,-0.970526,-1.315623,-1.058788,-1.011429,-0.780885,-1.060197,-0.985309,-1.031309,-0.911820,-0.911244,-1.037154,-1.078281,-0.935588,-1.026922,-1.027141,-1.120616,-0.888595,-1.019130,-0.948244,-1.200582,-1.127460,-0.921108,-0.944198,-0.951265,-0.756012,-0.964859,-0.974222,-0.986632,-0.799617,-0.370720,-0.459966,-0.657503,-0.421872,-0.247959,-0.037299,-0.072887,-0.070271,-0.213769,-0.026568,0.278142,0.231283,0.079262,-0.026629,-0.088168,-0.168756,-0.386965,-0.394073,-0.420922,-0.411977,-0.447298,-0.615291,-0.595444,-0.666581,-0.607118,-0.498139,-0.702187,-0.603638,-0.579054,-0.614092,-0.419010,-0.599869,-0.702732,-0.564259,-0.544312,-0.567223,-0.671462,-0.477743,-0.504004,-0.535670,-0.503991,-0.626327,-0.511577,-0.367480,-0.327366,-0.401715,-0.526342,-0.418324,-0.395805,-0.400150,-0.388119,-0.465504,-0.413244,-0.266901,-0.216822,-0.225326,-0.468561,-0.203800,-0.122937,-0.150985,-0.157726,-0.188919,0.084414,0.140737,0.474871,0.721966,0.399473,0.258351,0.234710,0.262739,0.148529,-0.051175,-0.066776,-0.134606,-0.168057,-0.119586,-0.255744,-0.206045,-0.107924,-0.236066,-0.206077,-0.178031,-0.241068,0.287957,1.958212,5.156335,6.026304,3.052125,1.165388,0.670875,0.391348,-0.050515,-0.179951,-0.246987,-0.249965,-0.181414,-0.175554,-0.192637,-0.288489,-0.212009,-0.118734,-0.186381,-0.200750,-0.305012,-0.116165,-0.019367,-0.163777,0.013347,0.095368,-0.067259,0.004129,-0.049132,0.039616,-0.041586,0.121075,0.217976,0.240337,0.284712,0.366415,0.408049,0.723658,0.579939,0.746566,0.871483,0.968150,1.080794,1.179650,1.293958,1.419776,1.263454,1.189318,1.248072,1.449304,1.034166,0.927962,0.961803,0.963935,0.760860,0.762106,0.756752,0.930901,0.581986,0.833555,0.656485,0.891779,0.585804,0.918211,0.443374,0.000000,0.000000,0.000000,1.000000
3.953070,4.482352,0.882760,0.454839,-0.178162,-0.316279,-0.831838,-0.690957,-0.912663,-0.704990,-0.799171,-0.694402,-0.863060,-0.802660,-0.725201,-0.703853,-0.778334,-0.822560,-0.809176,-0.550638,-0.709368,-0.639704,-0.451951,-0.590781,-0.591482,-0.593798,-0.559694,-0.570969,-0.532839,-0.344807,-0.339287,-0.296353,-0.210608,-0.197369,0.083872,0.093274,0.082716,0.321059,0.354057,0.514487,0.584101,0.711548,0.846832,0.777069,0.635611,0.658305,0.878560,0.628283,0.335921,0.423597,0.405795,0.271193,0.176504,0.201981,0.346044,0.123220,0.161951,0.208878,0.201317,0.209186,0.121847,0.262091,0.211098,0.172559,0.330548,0.326167,0.384786,0.374612,0.377793,0.352214,0.350553,0.279277,0.480323,0.385009,0.444176,0.298793,0.349406,0.294745,0.442755,0.437873,0.306302,0.370094,0.340043,0.209215,0.398027,0.242997,0.489089,0.133803,0.036784,0.263543,0.265199,0.287699,0.401199,0.391243,0.386437,0.405936,0.813044,0.944332,0.779728,0.845547,0.773749,0.570172,0.572629,0.375571,0.242738,0.116349,0.097762,-0.128764,-0.072695,-0.173491,-0.240982,-0.237534,-0.364558,-0.269869,-0.180666,-0.163575,1.956228,5.453422,6.361558,2.846960,1.009342,0.035660,-0.211705,-0.343730,-0.595041,-0.771700,-0.898701,-0.916099,-0.762756,-0.701388,-0.904281,-0.991715,-0.909514,-0.730260,-0.557358,-0.966422,-0.856335,-0.940184,-0.868775,-0.927478,-0.964810,-0.941643,-0.992114,-0.995097,-0.816349,-0.951801,-0.946861,-1.005789,-0.541362,-0.701230,-0.704536,-0.817232,-0.526304,-0.546800,-0.184635,-0.187433,0.052125,-0.103424,0.187463,0.002844,0.065504,0.321131,0.160208,-0.137013,-0.280197,-0.470946,-0.394276,-0.450493,-0.548664,-0.744450,-0.739859,-1.008186,-0.576523,-0.751572,-0.664386,-1.051145,-0.524281,-0.937381,-0.313395,-1.177964,0.000000,0.000000,0.000000,0.000000,0.000000,0.000000,0.000000,1.000000
4.946567,4.476009,1.160692,0.741331,-0.160406,0.151828,-0.440782,-0.342106,-0.737441,-0.562215,-0.640537,-0.340786,-0.672161,-0.667928,-0.733410,-0.478233,-0.330427,-0.576137,-0.699460,-0.589098,-0.698967,-0.578934,-0.768207,-0.633162,-0.759359,-0.723676,-0.613644,-0.626532,-0.715346,-0.744331,-0.409493,-0.333438,-0.495316,-0.506598,-0.378854,-0.239391,-0.062483,0.139441,0.207554,0.260712,0.300155,0.432322,0.172526,0.637429,0.425770,0.257774,-0.044745,-0.111607,-0.223201,-0.098567,-0.309510,-0.397225,-0.510881,-0.665963,-0.492020,-0.347105,-0.496974,-0.629303,-0.518889,-0.404001,-0.445027,-0.295140,-0.546432,-0.427573,-0.415146,-0.433408,-0.383449,-0.455699,-0.407874,-0.226480,-0.300337,-0.227185,-0.304939,-0.231997,-0.335839,-0.349674,-0.434367,-0.298766,-0.249355,-0.238773,-0.110770,-0.097290,-0.135029,-0.088174,-0.208587,-0.193895,-0.165378,-0.160105,-0.072580,-0.098927,-0.081866,0.005790,-0.124367,0.083413,-0.084155,0.007061,0.219937,0.524179,0.679543,0.484464,0.466431,0.461847,0.236922,0.259325,0.047717,0.004011,-0.127164,-0.210029,-0.216520,-0.200856,-0.249541,-0.159000,-0.300955,-0.209784,-0.235670,-0.316937,-0.044324,1.690181,5.250379,7.144984,3.889481,0.840684,0.309118,0.180929,-0.118895,-0.391474,-0.476901,-0.490351,-0.593495,-0.538756,-0.628629,-0.597160,-0.727920,-0.586608,-0.690449,-0.571193,-0.578137,-0.518330,-0.546842,-0.584056,-0.591016,-0.574070,-0.610602,-0.511762,-0.538942,-0.405913,-0.434382,-0.421954,-0.376977,-0.355115,-0.313674,-0.149337,-0.138133,0.072604,0.062231,0.251171,0.260343,0.463586,0.539069,0.623572,0.558738,0.814649,0.700183,0.840973,0.648188,0.796857,0.601235,0.535720,0.444303,0.344944,0.281093,0.353970,0.142308,0.343515,0.028684,0.276309,0.014311,0.262574,0.051121,0.391284,-0.330757,0.000000,0.000000,0.000000,0.000000,0.000000,0.000000,1.000000
4.156371,4.217460,0.328712,-0.151163,-0.537109,-0.540064,-0.990257,-0.959086,-1.088834,-1.069902,-1.140433,-1.104717,-1.176855,-1.193968,-1.199117,-1.150216,-1.196239,-1.066720,-1.130137,-1.036387,-1.159138,-1.100390,-1.146106,-1.121341,-1.110377,-1.055623,-1.032958,-0.947088,-1.026355,-0.927727,-0.950249,-0.895210,-0.792183,-0.731538,-0.615026,-0.539830,-0.464336,-0.366269,-0.289953,-0.132249,-0.100296,-0.110348,0.021724,0.053942,0.057306,0.034922,-0.005595,0.029074,-0.202822,-0.144282,-0.339495,-0.328231,-0.343775,-0.417471,-0.398617,-0.459972,-0.514678,-0.440631,-0.568137,-0.383333,-0.513719,-0.473510,-0.430441,-0.521860,-0.373345,-0.494331,-0.423052,-0.339862,-0.361078,-0.299746,-0.336054,-0.290928,-0.297067,-0.316002,-0.227942,-0.185757,-0.207774,-0.222589,-0.165849,-0.161478,-0.163621,-0.190370,-0.163333,-0.137870,-0.129568,-0.178177,-0.092872,-0.113344,-0.159248,-0.042297,-0.116617,-0.104881,-0.020400,-0.084940,0.029424,-0.024526,0.067660,0.089805,0.088433,0.179901,0.265595,0.473224,0.651258,0.546405,0.522817,0.403107,0.344812,0.350901,0.203534,0.131863,0.034630,0.034145,-0.030688,0.019394,0.067147,-0.096661,0.049232,0.050863,0.020228,0.026726,-0.187107,0.320962,2.200038,5.145022,6.773810,4.260115,1.805736,0.731178,0.235455,0.134212,0.038821,-0.051450,-0.069523,-0.086418,-0.060878,-0.113648,-0.013520,-0.065975,-0.014591,-0.088532,-0.087243,-0.082302,-0.114717,-0.142068,-0.059546,-0.138638,-0.101138,-0.128290,-0.099785,-0.092264,-0.176121,-0.106257,-0.095573,-0.116396,-0.085158,-0.087231,0.050027,0.013642,0.124346,0.156492,0.210408,0.303782,0.379697,0.463818,0.605048,0.549675,0.778902,0.769127,0.947300,0.933430,0.897787,0.854873,0.789049,0.660808,0.721662,0.410382,0.564873,0.344983,0.466003,0.274966,0.383735,0.185272,0.380652,0.090371,0.591125,-0.249203,0.000000,1.000000
5.200570,4.943907,0.769099,0.504244,-0.419396,-0.162829,-0.583938,-0.600190,-0.700983,-0.636271,-0.809382,-0.559997,-0.768325,-0.549177,-0.731405,-0.613882,-0.657091,-0.586481,-0.603896,-0.572313,-0.616401,-0.489169,-0.659118,-0.492447,-0.632964,-0.566519,-0.502815,-0.567418,-0.449667,-0.462089,-0.550329,-0.378856,-0.371210,-0.296154,-0.312670,-0.249900,-0.119925,0.008204,0.059303,0.191158,0.288156,0.455109,0.429346,0.553445,0.581706,0.607987,0.720947,0.547560,0.509709,0.477743,0.338521,0.335760,0.165977,0.241793,0.014888,0.054265,0.033389,-0.111128,-0.017988,0.049217,0.112302,0.127312,0.033111,0.213248,-0.063514,0.007717,0.118788,-0.023614,0.103030,0.000633,0.006785,0.074582,-0.004265,0.109336,0.038302,0.207895,0.189158,0.123583,0.153595,0.162213,0.153037,0.132054,0.030864,0.192818,0.148344,0.041435,0.080826,0.083834,0.092551,0.031314,-0.046876,0.093073,-0.052985,-0.014609,-0.122035,-0.017564,0.004439,-0.076761,-0.059183,-0.038230,0.094406,0.083630,0.216619,0.573440,0.650052,0.517911,0.640915,0.424872,0.344881,0.355696,0.126417,-0.064749,-0.149826,-0.109399,-0.163702,-0.151573,-0.196198,-0.336046,-0.212438,-0.287789,-0.334616,-0.536178,0.028139,2.549808,6.098693,6.088719,2.506539,0.912983,0.337094,0.154085,-0.267461,-0.507363,-0.802940,-0.588650,-0.830255,-0.829543,-0.803244,-0.833525,-0.875134,-0.816038,-0.933968,-0.711139,-0.987344,-0.863067,-0.930722,-0.983258,-1.051886,-1.084541,-1.063689,-1.069931,-0.780625,-0.854617,-1.072725,-0.874352,-0.845699,-1.014172,-0.869267,-0.623695,-0.524174,-0.463954,-0.500743,-0.362413,-0.271131,-0.159799,-0.004581,0.312648,0.230233,0.360508,0.429608,0.447347,0.360488,0.600692,0.434214,0.497616,0.176965,0.181720,-0.003546,0.057258,-0.175469,0.031569,-0.212203,0.036371,-0.267632,0.272247,-0.325009,0.178188,-0.756775,1.000000
2.619633,2.114651,0.026424,-0.236607,-0.605636,-0.653395,-0.970358,-1.061472,-1.137189,-1.046058,-1.251511,-1.117869,-1.205339,-1.176049,-1.199161,-1.203559,-1.179728,-1.162222,-1.293240,-1.157752,-1.314949,-1.248325,-1.378507,-1.280214,-1.375887,-1.186828,-1.163705,-1.282176,-1.285531,-1.142687,-1.287509,-1.237357,-1.110819,-0.993798,-0.974291,-0.962402,-0.940792,-0.839313,-0.803838,-0.709710,-0.536789,-0.496341,-0.503821,-0.400930,-0.405838,-0.442738,-0.351625,-0.359248,-0.393525,-0.485764,-0.595139,-0.618857,-0.670877,-0.722187,-0.714496,-0.730798,-0.726144,-0.751504,-0.644050,-0.680707,-0.783782,-0.759901,-0.751060,-0.677395,-0.617203,-0.584699,-0.604286,-0.651144,-0.766033,-0.617094,-0.597203,-0.491217,-0.694300,-0.694666,-0.489173,-0.345838,-0.404930,-0.314774,-0.246992,-0.352502,-0.631662,-0.394829,-0.307818,-0.290503,-0.356887,-0.356981,-0.251218,-0.346742,-0.270244,-0.135192,-0.136950,-0.197582,-0.184020,-0.265476,-0.238244,-0.099518,0.040002,-0.030525,-0.085130,0.206382,0.150371,0.256854,0.550180,0.913329,0.567234,0.315158,0.386153,0.249310,0.075154,0.174184,-0.012590,0.117013,0.007327,-0.089238,-0.061677,0.028954,0.072734,0.205142,0.171348,-0.046670,-0.134191,1.048540,3.978088,5.289629,2.445510,1.208307,1.216914,0.755227,0.143389,0.289808,0.328063,-0.035087,-0.082430,0.285737,0.193902,-0.214844,0.115555,0.162944,-0.157968,-0.023454,0.217532,0.374951,-0.065381,0.378829,0.252641,0.429615,0.305919,0.333556,0.288247,0.306809,-0.025595,0.210512,1.038654,1.256592,0.937105,1.362365,0.900924,0.629012,0.638865,0.595496,0.738510,1.660479,2.337379,2.023762,0.837788,0.726019,1.540584,1.977404,1.518841,1.258978,1.494196,1.517633,1.515557,1.816581,1.906773,0.790852,0.347185,1.214859,1.376218,1.033046,0.650996,0.527787,0.864704,1.298859,0.238237,0.000000,0.000000,1.000000
3.121378,2.957399,0.295293,0.768409,0.059695,-0.341745,-0.588024,-0.223430,-0.744885,-0.751285,-0.550510,-0.356615,-0.931307,-0.645074,-0.505773,-0.802002,-0.790591,-0.531440,-0.294650,-0.708622,-0.435242,-0.364490,-0.349094,-0.304661,-0.419659,-0.356342,-0.412021,-0.619405,-0.654321,0.228796,0.599101,0.288405,0.590941,0.404153,-0.102742,-0.000296,-0.124013,0.005061,0.735260,1.654745,1.487158,0.412391,-0.107376,0.749346,1.258388,1.018386,0.524600,0.827950,0.812787,0.872611,1.023963,1.361562,0.321575,-0.372977,0.337692,0.786240,0.381161,0.073642,-0.215749,0.117353,0.585587,-0.177964,0.155697,0.888389,0.511951,0.472664,0.395737,0.913443,0.880437,0.204563,0.661349,1.711457,1.096687,0.629951,0.817439,0.987743,0.552590,1.203020,0.866205,0.656334,0.905851,0.911683,0.745427,0.684341,1.110933,1.213845,0.865908,0.471071,0.473336,0.877630,0.864555,0.360697,0.323384,0.848067,0.669031,0.673298,0.533971,0.559757,0.805447,0.949366,0.867204,0.738846,0.568018,0.550954,0.509122,0.440196,0.207746,0.373927,0.263748,0.023873,0.145400,0.084797,0.024820,0.137064,-0.079034,-0.141947,-0.362826,-0.056831,1.451461,3.665255,4.242734,2.307078,1.256095,0.729884,0.397830,-0.116913,-0.252249,-0.429775,-0.390537,-0.585422,-0.611927,-0.407587,-0.475806,-0.668686,-0.778112,-0.759126,-0.888046,-0.776445,-0.811078,-0.805127,-0.899859,-1.039079,-0.738241,-1.098581,-1.079502,-1.137870,-1.106593,-1.118651,-1.163441,-1.111706,-1.094349,-1.385925,-1.225515,-1.035884,-1.014928,-0.979985,-0.835470,-0.961667,-1.070296,-1.000983,-0.696165,-0.801577,-0.759512,-0.851201,-0.899748,-1.041180,-1.094054,-0.926095,-1.413734,-1.355017,-1.303117,-1.415831,-1.181542,-1.548656,-1.331816,-1.489491,-1.708536,-1.587134,-1.289270,-1.760208,-1.468915,-1.899233,0.000000,0.000000,0.000000,0.000000,0.000000,1.000000
3.291732,4.326491,2.373573,2.405726,1.738532,1.602614,1.173314,1.253756,1.056124,1.127687,0.857253,1.194027,1.046597,1.020075,0.770598,0.902997,0.699106,0.839991,0.782140,0.819019,0.744482,0.605237,0.802620,0.670465,0.496774,0.583833,0.481801,0.588613,0.459253,0.552675,0.546105,0.394161,0.329931,0.620263,0.584756,0.665471,0.717579,0.751136,0.553580,0.621066,0.801157,0.889193,0.772071,0.851990,0.671207,0.710196,0.468727,0.749330,0.382342,0.278573,0.393731,0.278311,0.431285,0.293883,0.214520,0.364410,0.007859,0.099076,0.308790,0.174373,0.045081,0.105621,0.521976,0.282628,0.186204,-0.023996,0.009009,0.051860,0.212222,0.354509,0.143426,-0.077355,0.035834,-0.003578,0.013448,-0.110712,0.022841,-0.071776,0.074767,0.233552,-0.046297,-0.007005,-0.157040,-0.215482,-0.396887,-0.028729,0.249261,-0.042605,-0.197792,-0.170858,0.118822,0.159984,-0.127334,-0.182272,-0.097495,0.196634,0.250345,-0.002319,0.097678,0.376317,0.086355,0.107224,-0.150380,-0.461045,-0.065356,0.110235,-0.192233,-0.335837,-0.430639,-0.584295,-0.521059,-0.592675,-0.393788,-0.299025,-0.786782,-0.945433,1.121480,3.491157,4.044038,1.905113,0.612772,0.222276,0.144176,-0.747460,-1.272948,-0.346124,-0.449947,-1.096172,-1.020625,-0.688751,-1.072562,-1.129749,-1.122157,-0.686456,-0.753897,-1.097597,-1.463700,-1.223732,-0.796191,-0.814457,-1.318032,-1.504058,-0.818945,-0.976509,-1.151907,-1.166051,-1.160738,-1.814022,-1.023203,-0.785027,-1.171458,-1.364678,-1.205577,-0.877690,-0.871431,-1.169501,-0.944268,-0.701393,-0.594189,-0.577792,-0.633362,-0.945497,-0.718779,-0.655199,-0.689447,-0.802791,-0.908086,-0.955793,-1.002579,-1.208637,-1.022254,-1.231350,-0.950895,-1.394371,-1.425645,-1.417832,-1.098465,-1.322227,-0.905733,-1.793012,0.000000,0.000000,0.000000,0.000000,0.000000,0.000000,0.000000,1.000000
5.224759,5.993401,2.256104,2.100432,1.409244,1.074641,-0.720475,0.559674,0.854097,0.127704,-0.402731,0.413323,-0.084544,-0.224956,-0.375585,0.205804,0.365481,-0.046809,-0.660685,-0.618822,0.073279,0.255585,-0.275284,-0.942909,-0.061997,0.101592,-0.280014,-0.368478,-0.207984,-1.099977,-0.599285,0.377017,-0.268212,-0.528488,-0.553904,0.026241,0.126497,-0.225914,-0.189789,0.329712,0.430059,0.556188,0.468176,0.099061,0.154474,0.485038,0.313861,0.297581,0.017890,0.023078,-0.090645,-0.329269,-0.206744,-0.326446,-0.160444,-0.396511,-0.874101,-0.578827,-0.460053,-0.311817,-0.314690,-0.511348,-0.539699,-0.812236,-0.312721,-0.050322,-0.522180,-0.316495,-0.498314,-0.782675,-0.385402,-0.166166,-0.217418,-0.420817,-0.474986,0.115687,-0.333975,-0.315852,-0.187184,-0.336664,-0.332297,-0.426289,0.047343,-0.193178,-0.373356,-0.461897,-0.299806,-0.303682,-0.410294,-0.256318,-0.170885,-0.103908,-0.182449,-0.197909,-0.501904,0.029040,0.016428,0.135349,0.516388,0.017594,-0.189809,0.134041,0.562748,0.272070,-0.191498,-0.192327,-0.357163,-0.507855,-0.456139,-0.042775,-0.368656,-0.462609,-0.243264,-0.348244,-0.374576,-0.614952,-0.760992,-0.111179,1.821471,4.567667,5.102906,3.362371,2.010474,1.140394,1.035431,0.527331,-0.270398,-0.327731,-0.482001,-0.500639,-0.618590,-0.733480,-0.728175,-0.414005,-0.425970,-1.060254,-0.554731,-0.387246,-0.681559,-0.753266,-0.638327,-0.730155,-0.559207,-0.418040,-0.573725,-0.819437,-0.746254,-0.641602,-0.393740,-0.545558,-0.516305,-0.704383,-0.518796,-0.246172,-0.337496,-0.555268,-0.546038,-0.284777,0.072358,0.190495,-0.351344,-0.047016,0.225279,0.076690,0.513719,0.025422,0.478625,0.362994,0.702230,0.400141,-0.307675,-0.665858,0.217382,0.074407,0.106528,0.052140,0.122473,-0.357625,-0.204504,-0.511947,0.479201,-0.668461,0.000000,0.000000,0.000000,0.000000,0.000000,1.000000
4.254486,4.665480,2.556083,2.281288,0.600314,0.438822,0.142063,-0.070249,-0.776878,-0.737239,-0.521441,0.007651,-0.316344,-0.369259,-1.040281,-0.735802,-1.027564,-1.194651,-0.373705,-0.882680,-0.733862,-0.126354,-0.532551,-0.529655,-0.707667,-1.093704,-1.197812,-0.818146,-0.129345,-0.070977,-0.765826,-0.795842,-0.546378,-0.464708,-0.998087,-0.569388,0.089110,-0.102853,-0.141698,0.091805,-0.051547,-0.173825,0.294253,0.280485,0.538224,0.454567,0.079629,0.178004,0.639279,0.541688,0.070527,-0.300755,0.428017,-0.131684,-0.501735,-0.609256,-0.205189,1.219576,0.289856,-0.418913,-0.477336,-0.280137,-0.594168,-0.106540,0.040723,-0.226014,-0.453327,0.146927,-0.182328,-0.377688,-0.196921,0.204903,-0.095863,-0.031610,-0.473339,-0.038834,0.043262,-0.008933,0.465893,-0.090676,-0.348930,0.189079,-0.180988,0.072745,-0.033592,-0.215224,-0.786026,0.107156,0.122234,-0.019593,0.141060,-0.538261,-0.174543,0.354098,-0.611144,0.454845,-0.110411,-0.539936,0.506650,-0.003074,-0.016480,-0.231638,0.224350,1.211971,0.348250,0.419201,0.232652,-0.216665,-0.249245,0.544335,0.585938,-0.303233,-0.316813,-0.284937,-0.223691,0.149429,0.086009,0.110867,-0.366612,-0.306930,-1.316519,-0.335316,2.277083,5.332815,5.604410,2.798666,3.069855,1.972104,1.021236,0.099805,-0.332040,-0.493275,-0.109662,-0.598896,-0.330821,-0.443165,-0.511859,-0.831741,-0.488293,-0.367046,-0.677531,-0.338614,-0.296241,-0.532690,-0.990586,-0.447664,-0.520429,-1.481037,-0.474876,0.315573,-0.367575,-0.539672,-0.926267,-0.817233,-0.480545,-0.275084,-0.413188,-0.404207,-0.241169,-0.192315,-0.126838,0.145076,-0.083375,-0.076220,0.372073,0.192637,0.548740,-0.090730,0.167894,0.134442,0.254345,-0.181986,-0.469843,-0.379738,-0.016624,-0.201887,0.455166,-0.210179,-0.471990,-0.722430,-1.130028,0.254636,0.544687,-0.710177,-0.059096,-0.482796,0.000000,1.000000
4.543029,4.323756,2.688485,2.936113,1.267055,0.713869,-0.220992,-0.303753,-0.185664,-0.202132,-0.483831,-0.134564,-0.486675,-0.514570,-0.693283,-0.084325,-0.620176,-0.286901,-0.231734,-0.233823,-0.848019,-0.561179,-0.218914,-1.148216,-0.929945,0.455816,-0.093135,-0.364408,-0.728721,-0.794307,-0.483294,-0.184035,-0.260651,-0.327552,-0.178731,-0.081958,-0.064775,0.193929,0.146992,-0.087578,0.457375,0.292690,0.632517,0.185732,0.138304,0.316285,0.302895,0.113936,-0.384921,-0.293444,0.014691,-0.046425,0.383737,0.209845,-0.507084,-0.362681,-1.200058,0.161348,0.691970,-0.309321,-0.331633,0.119877,-0.090287,-0.666200,-0.437117,-0.190632,-0.151248,-0.319199,0.150703,0.008616,-0.173756,-0.462563,0.031103,-0.244742,-0.078562,-0.306184,-0.337288,0.180276,-0.263207,-1.037585,0.340621,0.621119,-0.051701,-0.537149,0.099325,-0.235588,-0.080703,0.705951,-0.666289,-0.412913,0.174121,0.384807,0.390460,0.009823,0.517148,0.163105,0.511167,0.149866,0.412403,-0.481441,-0.085445,0.102663,0.383729,0.074206,-0.395988,-0.336753,-0.113171,0.208898,-0.408115,-0.503512,-0.469087,-0.410168,-0.794184,0.994318,4.921234,5.669068,3.559013,2.116586,1.437107,0.839342,0.095158,-0.178614,-0.790035,-0.290770,-0.176906,-0.529691,-0.790494,-0.445709,-0.716879,-0.767262,-0.530149,-0.845340,-0.323571,-0.521871,-0.909824,-1.132399,-0.420505,-0.350411,-0.796409,-0.964547,-0.718755,-0.511652,-0.476801,-0.422177,-1.225622,-0.287786,-0.267747,0.119788,-0.864792,-0.671197,-0.238589,0.365709,0.194310,0.165205,-0.312000,-0.258655,0.313350,0.508042,0.834144,-0.084298,-0.515221,0.681247,-0.136273,-0.209491,-1.124387,0.162685,0.354570,-0.252937,-0.369012,-0.434674,-0.940116,-0.301515,-0.000023,-0.249007,-0.673884,-0.313785,-0.685267,0.000000,0.000000,0.000000,0.000000,0.000000,0.000000,0.000000,0.000000,0.000000,0.000000,1.000000
3.808007,4.729453,2.239956,2.061301,1.143217,0.688303,0.167378,-0.217787,-0.121994,0.342798,-0.143312,-0.297249,-0.180861,-0.138247,-0.492944,-0.036810,-0.484495,0.026081,-0.070803,-0.391479,-0.747858,-0.160475,0.110204,-0.317712,-0.528785,-0.399808,-0.087220,-0.155518,0.099568,-0.766535,-0.076333,0.136172,0.457511,-0.211767,-0.439776,0.112960,0.583692,0.679264,0.486215,0.254388,-0.027885,0.641292,0.770094,1.180834,0.574900,-0.246230,0.889652,0.463560,0.174637,-0.515360,0.073784,0.962487,0.107956,0.130061,-0.080898,-0.348283,-0.234896,0.526993,0.074959,-0.056164,-0.196304,0.063252,0.546391,0.075426,-0.046954,-0.013639,-0.333008,0.345071,0.250869,0.004703,0.069178,0.077511,-0.278891,0.531911,0.455290,-0.162198,-0.322527,-0.301516,-0.266326,0.409031,0.390993,-0.128889,-0.011668,-0.137294,-0.100454,-0.164495,-0.583567,0.154269,0.292884,-0.066385,0.144691,0.120907,0.233628,0.133612,0.330201,0.221899,0.302221,0.806868,0.445565,0.232513,0.102116,0.136795,-0.177085,-0.281341,0.168245,0.112608,-0.391585,-0.048482,-0.081523,-0.218099,-0.087104,-0.514938,-0.870639,-0.548050,1.560770,4.914490,6.047677,3.234858,1.824666,1.065517,0.228500,-0.137316,-0.829069,-0.582135,-0.421715,-0.757389,-0.755206,-0.901206,-0.787910,-1.030500,-1.103715,-0.505059,-0.554839,-1.096878,-1.089168,-0.708577,-0.858384,-1.136444,-0.942232,-0.757578,-0.832760,-0.976564,-0.953333,-1.012643,-0.691602,-0.711137,-0.808671,-0.878000,-0.995880,-0.538748,-0.372112,-0.181600,-0.272933,-0.436347,0.013312,0.032504,0.132357,0.071803,0.064524,0.173332,-0.214013,-0.210232,-0.292531,-0.688787,-0.431999,-0.570976,-0.646252,-0.727869,-0.695876,-0.840414,-0.906896,-1.029900,-1.021432,-0.665569,-0.588125,-1.097493,-0.462941,-1.201234,0.000000,0.000000,0.000000,0.000000,0.000000,0.000000,0.000000,0.000000,0.000000,1.000000
4.731569,4.437514,1.901208,1.697677,0.477553,0.377261,-0.477866,-0.332189,-0.139456,-0.333914,-0.488529,-0.502554,-0.548819,-0.551968,-0.881868,-0.303627,-0.182915,-0.614400,-0.858141,-0.440919,-0.469268,-0.748319,-0.714695,-0.445874,-0.489712,-0.612561,-0.643843,-0.671068,-0.500127,-0.316956,-0.520175,-0.476273,-0.715666,-0.352394,-0.108811,0.049456,0.094226,-0.154880,0.152141,0.349823,0.334497,0.416699,0.272706,0.477043,0.180866,0.032855,0.091356,-0.303676,-0.237362,-0.161666,-0.360779,-0.357203,-0.427442,-0.423894,-0.614045,-0.608016,-0.776746,-0.449855,-0.246346,-0.617967,-0.461394,-0.377775,-0.558049,-0.507619,-0.337559,-0.446728,-0.485383,-0.568787,-0.322973,-0.368278,-0.401917,-0.368839,-0.413081,-0.415457,-0.451870,-0.454670,-0.331501,-0.412680,-0.459582,-0.506136,-0.361248,-0.483295,-0.516574,-0.401620,-0.508433,-0.222849,-0.356360,-0.411573,-0.201408,-0.176367,-0.148262,0.183167,-0.031748,-0.073343,-0.120193,-0.155321,-0.213934,-0.286620,-0.327243,-0.362081,-0.281054,-0.358320,-0.533830,-0.468816,-0.455790,-0.345177,-0.358889,-0.308443,-0.558790,-0.748002,-0.027165,2.247327,5.456248,6.040493,2.556712,0.936285,0.254158,-0.268012,-0.387941,-0.593234,-0.351859,-0.400863,-0.814406,-0.562117,-0.379817,-0.612152,-0.629625,-0.315795,-0.503732,-0.663307,-0.488832,-0.450049,-0.941753,-0.725203,-0.214796,-0.470957,-0.664870,-0.371783,-0.192792,-0.748927,-0.521144,-0.243599,-0.497658,-0.202846,0.139687,-0.099561,-0.571269,0.158847,0.050894,-0.196613,0.258410,0.269515,0.249304,1.217827,0.862012,0.421682,0.650554,1.538207,0.872939,0.726870,0.820364,0.816030,0.699533,0.779987,0.499665,1.039487,0.207801,0.661982,1.248929,0.344474,0.663231,1.101147,0.633079,1.210749,0.829276,0.000000,0.000000,0.000000,0.000000,0.000000,0.000000,0.000000,0.000000,0.000000,0.000000,0.000000,0.000000,1.000000
2.425179,1.636753,-0.513452,-0.733332,-1.392757,-1.357500,-1.626700,-1.470308,-1.432825,-1.658469,-1.701235,-1.429501,-1.573941,-1.645135,-1.480973,-1.449439,-1.660110,-1.565941,-1.479479,-1.721415,-1.828904,-1.385258,-1.444455,-1.633634,-1.547394,-1.295793,-1.599023,-1.670810,-1.346953,-1.513154,-1.415812,-1.157455,-1.142449,-1.580155,-1.239865,-1.061928,-1.343708,-1.120588,-0.948371,-1.123126,-0.507363,-0.471273,-0.865849,-0.872421,-0.251501,-0.418089,-0.760415,-0.616758,-0.651086,-0.697375,-0.670079,-0.828966,-0.579745,-0.833346,-1.013211,-0.247395,-0.890731,-0.824467,-0.495797,-0.651126,-0.575570,-0.380482,-0.376277,-0.286713,-0.251600,-0.230820,0.003707,-0.025784,0.071185,0.047499,0.138744,-0.012054,0.517226,0.111886,0.273388,0.427546,0.408928,0.191758,0.350420,0.265295,0.185089,0.301544,0.480237,0.181903,0.183744,0.623716,0.174834,0.250878,0.543491,0.190738,0.389147,0.481950,0.436810,0.562921,0.397757,0.642908,0.390898,0.519845,0.412639,0.424013,0.523773,0.019224,-0.017730,0.641878,0.429501,-0.000535,-0.043944,0.463236,0.254856,0.226754,0.527545,0.161683,0.336713,0.561518,1.816463,3.863723,4.340671,3.015392,1.298761,1.485220,1.048893,0.680710,0.753407,0.658233,0.571865,0.589697,0.776122,0.337730,0.398666,0.351761,0.737558,0.573880,0.305408,0.272943,0.500255,0.608777,0.243644,0.148010,0.399407,0.241464,0.287903,0.178682,0.177291,0.233151,0.423257,0.250236,0.194484,0.331102,0.666977,0.518616,0.403250,0.397908,0.288122,0.482727,0.889075,0.551720,0.703656,0.685296,0.916118,0.895324,0.924914,1.072225,1.066564,1.012592,1.016843,1.006439,0.981253,0.792591,0.781808,0.671812,0.789911,0.329573,0.739334,0.600185,0.952977,0.583702,0.639566,0.392755,0.000000,0.000000,0.000000,0.000000,0.000000,0.000000,0.000000,0.000000,0.000000,1.000000
