-0.347318,1.076517,0.521166,1.085967,0.268933,-0.299299,0.363132,-0.488241,0.864097,-0.669956,-0.724555,-0.716313,-1.262804,-0.335332,-0.976072,0.230417,0.756684,0.637562,1.366063,0.623058,0.850258,-0.045589,0.074572,0.090770,0.031137,0.112815,-0.573480,-1.376394,-1.233192,-1.082694,-1.141634,-0.915504,-0.568824,0.105695,0.434980,0.248155,0.523831,-0.436833,-0.012571,-1.023148,-1.360185,-0.567056,-1.421196,-0.207581,-1.496300,-1.364058,-0.797490,-1.547311,-0.082077,-0.945553,0.229313,1.030620,0.441029,1.462999,0.362488,1.064748,0.227308,-0.177055,0.679001,-0.305049,0.919897,-0.665717,-0.353600,0.008054,-0.978678,0.072336,-0.061809,0.222866,1.147507,0.673540,1.444286,1.065756,1.185677,1.162673,0.351934,0.500958,-0.003237,0.241866,0.570032,-0.249516,-0.866549,-1.050178,-0.957247,-0.666785,-0.493449,0.182833,0.638254,0.801242,1.346628,1.289722,0.768515,0.459161,-0.141765,0.263493,0.132338,0.176454,0.430124,-0.687528,-0.540092,-0.573498,-0.485390,-0.690031,-0.418573,0.042545,0.640954,1.245532,1.163776,0.959390,0.827735,0.236886,0.140576,-0.067182,-0.238404,-0.238452,-0.387571,-0.855644,-0.955126,-1.459997,-1.327437,-1.325187,-0.685493,0.250615,-0.186246,1.421685,1.072220,1.109492,-0.322322,-5.261464,-5.346307,-1.242107,0.527294,0.368997,-0.455432,0.038884,-1.446951,0.012063,-0.836726,-0.695212,0.395438,0.342071,1.644042,0.895584,1.501676,1.319012,0.468167,0.674834,0.365488,0.576596,0.430839,-0.186410,-0.272030,-0.772603,-0.507127,-0.567250,-0.522508,-0.411917,0.167059,0.745636,1.091179,0.761656,1.538346,1.252831,0.583895,0.581747,-0.122109,0.074021,-0.084038,-0.536679,-0.762296,-1.849583,-1.343804,-1.276253,-1.522484,-0.348187,-0.232633,0.749741,1.031137,1.188002,1.969536,0.983267,1.171050,0.840889,0.742364,1.469319,0.379558,0.976048,0.246345,1.000000
-0.150840,-1.044045,-0.772511,-1.205636,-1.354130,-0.859947,-1.701506,-1.035376,-1.404701,-1.839111,-1.619788,-2.225688,-1.385043,-1.856392,-0.945332,-0.661350,-0.923627,-0.145551,-1.208002,-0.488298,-1.103552,-1.259911,-0.954550,-1.302901,-0.645796,-1.625937,-1.629369,-1.592351,-1.959332,-1.589632,-1.683205,-1.107372,-0.384473,-0.511128,-0.196240,-0.578729,-0.717192,-0.760521,-1.230437,-1.190304,-1.378165,-1.338846,-1.428011,-1.855623,-1.876595,-1.784389,-1.993892,-1.623386,-1.061372,-0.375236,-0.072948,-0.264013,0.619730,-0.058235,-0.009445,-0.088570,-0.796141,0.174348,-0.512402,-0.107034,-0.603613,-1.433812,-0.851467,-1.286902,-0.304990,-0.671648,-0.106689,0.455171,0.138233,0.918940,0.527638,0.319950,0.245093,-0.070301,0.014582,-0.048327,-0.006139,-0.313677,-0.666020,-0.495209,-0.643704,-0.319490,-0.224108,0.074536,0.648756,0.475845,0.961723,0.864834,1.023972,1.008961,0.372766,0.564621,0.345611,0.291619,0.412609,-0.026489,-0.266771,-0.172103,-0.134836,0.137896,-0.219474,0.479922,0.781817,1.000240,1.453491,1.350425,1.572373,1.233010,0.762660,0.769180,0.471086,0.804638,0.578926,0.516913,0.349526,-0.244214,-0.080138,0.015874,-0.038062,0.238436,0.335530,1.094591,1.216361,1.253164,1.903151,1.204539,0.283991,-1.939071,-2.373884,0.681691,0.466767,0.857191,0.527562,-0.112197,0.444119,-0.202341,0.157033,0.091884,0.432302,0.976593,1.119363,1.473253,1.430243,1.508919,1.545400,0.988780,1.004367,0.803756,0.854841,1.016184,0.832349,0.302205,0.464683,0.168040,0.452449,0.459552,0.298314,0.915941,1.168993,1.352943,1.535486,1.276964,1.443541,0.883296,1.245211,0.830340,0.614042,1.136599,0.269223,0.111084,-0.377099,-0.738657,-0.039943,-0.485096,0.489470,0.568048,1.070716,1.599362,1.214095,1.781377,1.448114,1.044964,1.433249,0.505412,1.521228,1.089822,0.795949,1.000000
-0.649617,-0.701930,-0.963142,-1.524000,-0.856893,-1.803288,-0.984305,-1.330559,-1.496215,-1.442255,-2.315538,-1.392931,-2.087897,-1.417033,-1.034274,-1.127050,-0.340246,-0.760285,-0.409072,-0.644528,-1.114160,-1.094230,-1.016381,-0.944566,-1.093904,-1.700438,-1.953752,-1.904580,-1.924897,-1.453280,-1.695424,-1.165439,-0.780125,-0.962334,-0.631204,-0.987152,-0.872244,-1.302319,-1.558293,-1.102122,-1.217990,-0.927266,-1.202209,-1.583666,-1.183656,-1.456215,-0.984762,-0.981629,-0.915841,-0.398915,-0.424647,0.294476,0.249073,-0.018416,0.341268,-0.489785,-0.168425,-0.525383,-0.591849,-0.242373,-0.952888,-0.876984,-1.261047,-1.143479,-0.790404,-1.421543,-0.141215,-0.283537,0.110631,0.612863,0.290062,0.677585,0.092699,0.018235,0.345736,-0.502502,0.360110,-0.274297,-0.377792,-0.481782,-1.020579,-0.015756,-0.842057,-0.336147,0.427938,-0.044769,1.094427,0.696061,0.984196,0.487569,0.048303,0.648529,-0.202472,0.549209,0.514295,-0.102034,0.187038,-0.742482,0.239867,0.170602,-0.252348,0.465069,0.124207,0.973678,0.840090,0.821388,1.872760,0.674556,1.102535,0.464010,0.177224,1.028017,0.046326,0.694615,-0.172928,-0.212475,0.284018,-0.154791,0.881268,0.419133,0.091836,-1.625517,-1.104600,1.870815,1.503895,1.257321,1.221884,0.458559,1.243145,0.542864,0.993059,0.724446,0.034641,0.504921,0.130548,0.571172,0.791047,1.149593,1.464758,1.658326,1.493175,1.897058,1.348041,1.297216,1.473924,1.155067,1.575539,0.602429,0.442211,-0.059118,0.037505,0.912628,0.059886,1.260179,0.900060,1.143979,1.757190,1.116344,1.768547,0.580093,0.871932,0.900613,0.506523,1.098412,0.201776,0.109575,-0.076057,-0.250507,0.480140,-0.110613,0.584955,0.909646,1.235341,1.960267,0.983177,1.708579,1.491823,1.103311,1.430493,0.839089,1.287838,0.852876,0.654843,0.632225,0.053611,0.443040,0.000000,1.000000
0.675384,0.969792,0.950504,-0.082250,0.526387,0.321398,0.028951,0.662237,-0.910796,-0.177802,-0.637408,-0.274968,0.124061,0.573092,0.989165,1.440995,1.179339,1.609869,1.361332,0.720156,1.281391,0.708257,1.231647,0.518690,-0.385013,-0.492016,-1.293290,0.345772,-0.534724,0.150908,0.916053,0.122530,1.689645,0.725557,1.403448,0.641838,-0.162749,0.718127,-0.265655,0.504379,-0.014063,-0.893714,-0.658706,-1.408044,-0.436760,-0.668464,-0.701605,0.491881,0.342754,1.768525,0.987342,0.841862,1.704083,0.541923,1.135698,0.532702,0.597773,0.755226,-0.055274,0.199140,-0.557349,-0.547807,-0.461504,-0.559259,0.322386,0.374982,1.008970,1.107240,1.216156,1.611213,0.985343,0.703008,0.456893,0.580736,0.516184,0.713782,-0.442414,-0.384588,-0.611859,-0.771040,-0.183673,-0.607847,0.404093,0.699523,0.802314,1.737954,1.069344,1.232023,0.859242,0.361854,1.028887,-0.105360,1.156286,-0.062823,-0.333805,-0.241643,-1.069545,0.401702,-0.448880,0.629006,1.300152,0.676042,1.742598,0.841023,1.022981,0.733815,-0.569634,0.532936,-0.735950,0.171337,-0.099753,-1.140429,-0.643073,-1.900350,-0.980378,-1.033493,-1.153798,0.050475,-0.223254,1.143166,0.900057,0.441832,1.135743,-1.973722,-4.890572,-4.018850,-0.578142,0.528306,-0.844401,-0.308398,-0.981510,-0.948403,-0.847993,-1.880757,-0.861059,-0.435043,0.146013,0.500014,0.516632,0.598980,0.457603,0.099075,-0.281424,0.014784,-0.268276,0.046137,-0.894640,-1.178219,-1.177258,-1.667569,-0.876970,-1.636930,0.005303,-0.023215,0.098036,0.348014,-0.302820,0.756221,-0.502609,-0.528619,-0.078356,-1.082749,0.091575,-1.466274,-1.415577,-1.707533,-2.481739,-1.179774,-2.002132,-0.531512,-0.234183,0.293757,0.767231,0.501238,0.485307,0.124960,0.009854,-0.035002,0.034506,-0.225615,-0.642900,-1.422807,-0.562071,-1.186209,0.000000,0.000000,0.000000,1.000000
0.849778,0.389834,-3.985427,-4.681585,-2.012419,1.098365,-0.051246,-0.255940,-0.157743,-0.908316,-0.274120,-1.275437,-1.183024,-0.114977,0.122466,0.904820,0.839068,1.060401,0.894788,0.772824,0.121176,0.313783,0.212881,0.278490,0.089554,-1.019433,-0.611284,-1.401417,-0.785343,-1.028385,-0.674555,0.807517,0.049714,1.001176,0.093968,0.750775,0.726309,-0.589299,0.429541,-0.467217,-0.127040,-0.014670,-1.675955,-0.726992,-2.391260,-1.258871,-1.392621,-1.125387,0.242298,0.211917,1.154246,0.999541,0.946311,0.698696,0.431760,0.341492,0.415825,0.286053,0.017041,-0.842374,-0.761669,-0.281055,-0.978139,-0.058661,-0.049445,0.830567,1.519796,0.711285,2.126333,0.243105,0.675310,0.666600,-0.457818,0.784058,-0.071587,-0.172496,-0.703700,-0.872908,-0.173636,-1.144829,-0.159032,-0.138791,0.428152,1.348670,0.416793,1.034609,0.592799,0.126088,0.429146,-0.329374,0.728111,-0.061510,-0.187925,-0.200979,-1.284260,-0.628797,-1.105585,-0.527241,0.148040,0.198528,1.068925,1.147498,1.479589,1.428564,0.848082,0.599278,0.163542,0.025898,0.151859,-0.371498,-0.003389,-1.053497,-0.980687,-0.691575,-1.089213,-0.532552,-0.459106,0.384577,0.541925,0.392730,0.942783,1.240143,0.829148,0.842271,-0.198788,-3.128564,-3.206755,-0.164878,0.786041,-0.525228,-0.606231,-0.831316,-0.686688,-0.060941,0.460102,0.636418,1.516105,1.267567,1.339653,1.097638,0.647511,0.917972,0.103357,1.035684,0.197605,0.353492,0.262659,-0.987353,-0.041025,-0.595273,-0.467904,0.292691,-0.179974,0.955273,0.739555,0.976378,1.246663,1.153407,1.070436,0.398771,-0.009093,0.929011,-0.145049,0.241611,-0.263378,-1.373590,-0.879118,-2.231389,-0.722164,-1.099902,-0.041253,0.695384,-0.287916,1.390362,0.755709,1.134208,0.858569,-0.052641,0.996243,-0.138358,0.832580,0.119656,-1.076519,-0.045379,-1.445559,0.000000,0.000000,1.000000
1.810237,0.446603,0.139066,0.180290,-0.695567,-0.074996,-0.650008,-1.249791,-1.470754,-1.385892,-1.337585,-1.312143,-1.246636,-0.140727,0.364312,0.346793,0.513532,0.033499,0.133714,-0.280634,-0.635337,-0.231450,-0.818803,-0.527956,-1.409756,-1.690466,-0.916960,-1.861134,-0.990734,-1.589436,-0.563928,0.067032,-0.770989,0.475485,-0.751367,-0.246367,-1.107187,-1.545937,-0.696887,-1.404269,-0.943707,-2.275556,-1.266174,-0.852014,-1.312887,-0.356520,-0.090463,0.512095,0.537296,0.379907,0.521858,0.683218,0.589587,1.170526,0.711458,0.781892,0.761897,-0.348339,0.490648,-0.506689,-0.209910,-0.177606,-0.261049,1.345237,0.513986,1.285908,0.665747,0.680131,1.424972,0.222617,1.337586,0.857165,0.881188,1.202082,-0.654353,0.241074,-0.665173,-0.535082,-0.206535,-0.158660,0.895115,0.786414,0.839495,0.436375,0.838903,0.656997,1.016565,0.735109,0.974012,0.982270,0.664981,-0.006589,-0.736190,-0.138174,-1.081146,-0.333721,0.045746,-0.066479,1.196298,0.130986,1.139013,0.174665,0.461213,0.798510,0.077816,1.005280,0.276801,0.586621,-0.199350,-1.063885,-3.606098,-6.473367,-1.813870,0.656946,0.405091,0.812780,0.104323,0.421258,-0.010483,0.108473,0.863562,0.627492,0.656067,0.266133,-0.049293,-0.202818,-0.587560,-0.600688,-0.647988,-0.439554,0.088467,0.525652,0.411954,0.892535,0.473888,0.784869,0.984639,0.416385,0.918780,0.879038,0.503162,0.568722,-0.123640,-0.102558,-0.697033,-0.432133,-0.702629,-0.444424,0.284476,0.012155,0.207690,0.188276,-0.211730,0.309634,-0.316357,0.337384,-0.155466,-0.520787,0.490695,-0.891481,-0.329507,-0.708137,-0.755467,-0.153124,-0.449481,0.981811,1.178080,1.647816,1.456655,0.013857,1.287801,0.999280,1.484897,0.371772,0.612036,2.213268,0.000000,0.000000,0.000000,0.000000,0.000000,0.000000,0.000000,0.000000,0.000000,0.000000,0.000000,1.000000
0.713913,0.177447,-0.100493,-0.204569,-0.212849,-0.579471,0.332285,0.245962,0.193615,-0.015140,-0.477056,-0.549883,-0.969210,-1.040899,-1.105691,-0.964938,-0.574805,0.054013,-0.071620,0.339023,0.195535,0.107104,0.634921,0.070973,0.238740,0.598708,0.053669,0.204809,-0.397714,-0.546298,-0.944498,-1.049427,-0.945384,-1.182761,-0.266969,-0.340591,-0.368819,-0.137163,-0.630377,-0.283689,-0.490522,-0.527660,-0.073273,-1.271111,-0.001314,-0.892788,-1.126382,-0.805147,-1.440331,-0.650019,-0.907158,-0.103563,0.895736,0.775497,1.520178,-0.232940,0.355046,0.751542,0.793211,0.595230,-0.417101,1.395214,1.459886,0.160952,0.303532,-0.507255,-0.138368,-1.200402,0.217792,0.551206,-1.111296,0.540979,-0.054973,0.145184,0.243251,-0.702217,0.572683,0.212536,0.034453,0.302268,-0.923454,-0.568610,-2.085218,-0.581986,-0.672966,-0.999221,-1.009710,0.315980,-0.607008,-0.126664,1.015209,-0.117695,-0.145300,0.029004,0.653737,-0.419074,0.348634,-0.621122,-0.929595,-0.601031,-1.861444,-0.669624,-0.151757,-0.928862,-0.344016,-0.156690,0.033772,0.085995,-0.061408,1.150966,0.525241,1.229301,1.001764,-0.115705,-1.736702,-5.510794,-0.317936,1.080548,-0.453568,0.251442,-1.459740,0.182177,-0.037578,0.195937,0.682731,0.539296,-0.013133,-0.298592,1.049503,1.114702,-0.184506,2.451323,0.248397,0.504027,0.073553,0.364493,2.684595,0.128133,-0.971799,2.747186,1.791465,1.285528,1.531652,0.890630,1.624011,1.181813,2.581156,-0.010140,-0.082092,1.031643,2.022344,1.560311,-0.869007,-1.567940,0.541705,0.396039,0.898997,1.153620,-0.746749,-0.981207,1.388127,0.000000,0.000000,0.000000,0.000000,0.000000,0.000000,0.000000,0.000000,0.000000,0.000000,0.000000,0.000000,0.000000,0.000000,0.000000,0.000000,0.000000,0.000000,0.000000,0.000000,0.000000,0.000000,0.000000,0.000000,0.000000,0.000000,1.000000
2.552523,1.983891,-0.332309,0.185523,0.384619,0.898854,0.974605,1.747790,3.835421,-0.172427,0.385294,0.370312,0.321803,1.198259,-1.371194,0.210873,0.816019,0.968031,1.612389,2.017795,2.240152,1.078615,1.277805,0.581644,1.109613,0.107212,0.582913,0.366812,-0.042441,-0.705487,-0.425411,-0.330051,0.005731,0.542632,0.149455,1.583376,0.805199,-0.158480,-0.137315,-0.108970,0.393893,0.085638,0.084897,0.617928,-1.129165,-0.792535,-1.171751,-0.926094,-0.470406,-1.153273,0.147177,-0.419098,0.418807,0.346101,-0.524510,0.446644,-0.010812,0.414262,0.260289,0.103727,0.046260,-1.349944,-1.169881,-1.667315,-1.917537,-0.888813,-1.664668,-0.299128,-0.859671,-0.543945,0.392506,-0.711618,0.289113,-1.800651,-3.989604,-1.896894,0.168719,0.868867,-0.124380,-0.630229,-0.947614,-1.851248,-0.964960,-1.127670,-1.270861,-0.248850,-0.716185,0.175251,-0.136286,-0.177858,0.335296,-0.408999,0.803600,0.105205,0.026289,0.624851,-0.804067,-0.152663,-1.036624,-1.115345,-0.455143,-1.517625,-0.387191,-0.166346,-0.364418,0.657515,-0.348354,0.411427,0.362238,0.141723,0.860582,0.098941,0.521102,0.492298,0.080371,0.400158,-1.209827,-0.711110,-0.986002,-1.527868,-0.429873,-0.942316,-0.474276,0.338441,-0.090046,0.771860,0.398320,0.735678,0.903252,0.598867,1.058915,1.065503,0.858075,1.065578,0.044870,0.317663,-0.059247,0.261067,0.029952,0.000000,0.000000,0.000000,0.000000,0.000000,0.000000,0.000000,0.000000,0.000000,0.000000,0.000000,0.000000,0.000000,0.000000,0.000000,0.000000,0.000000,0.000000,0.000000,0.000000,0.000000,0.000000,0.000000,0.000000,0.000000,0.000000,0.000000,0.000000,0.000000,0.000000,0.000000,0.000000,0.000000,0.000000,0.000000,0.000000,0.000000,0.000000,0.000000,0.000000,0.000000,0.000000,0.000000,0.000000,0.000000,0.000000,0.000000,0.000000,1.000000
0.862363,0.957682,0.290406,0.599505,0.550076,-0.154183,0.029415,0.543964,0.227966,-0.603723,-0.575348,-0.179203,-0.538564,-0.748171,-0.421097,-0.320793,0.624361,0.335882,0.730680,0.433040,0.611438,0.208248,0.690459,0.629068,0.139906,0.674907,0.049353,-1.157385,-0.881107,-0.603045,-1.187729,-0.926015,-0.103555,-0.377411,0.193876,0.410775,-0.472258,-0.438834,-0.226322,-0.576137,-1.605349,-0.739046,-0.643977,-1.595907,-2.097200,-1.673216,-1.936100,-1.610530,-0.706011,-0.689750,-0.409522,0.680965,0.162672,-0.539588,0.842768,0.107211,-0.219126,0.617085,0.201020,0.071393,0.260239,-0.109033,-1.219006,-0.939143,-0.407164,-1.419924,-0.553595,-0.855339,-0.565483,0.789449,-0.126125,0.467486,0.434946,0.662471,0.779348,-0.167775,0.549648,-0.126251,0.455313,0.308658,-0.987948,-0.248700,-0.700386,-0.453091,0.142364,-0.264836,1.312468,1.046590,1.033570,1.732409,0.823491,1.515098,1.047760,1.035637,1.660730,0.473816,1.230080,-0.504674,-0.469352,0.010876,-1.341437,0.102849,-0.822477,0.015501,0.939853,0.191444,0.768085,0.120840,0.645280,0.847726,-0.318722,1.446513,0.277739,-0.103508,-3.474913,-6.710929,-1.483723,1.261220,0.704735,0.612140,-0.313601,1.379487,0.078514,1.169939,0.894227,0.808563,1.639757,0.213506,1.715544,0.868247,0.578495,1.345146,-0.323231,0.025176,-0.697983,-0.567800,0.541983,-0.798468,0.602085,0.560418,0.448010,0.922475,-0.063396,1.099422,0.099866,0.471836,0.164767,0.382096,0.108891,-0.993255,-1.043690,-1.378251,-1.269628,-1.354133,-1.267175,-0.988562,-0.509806,-0.312471,-0.408729,-0.354186,-0.899213,0.010291,0.061137,0.539171,0.608750,0.126247,0.605060,-0.447421,-0.094831,-0.100622,-0.518645,0.240797,0.305561,1.174093,1.268393,0.437890,1.788310,0.386433,1.171840,1.009549,0.000000,0.000000,0.000000,0.000000,0.000000,0.000000,0.000000,1.000000
0.487877,1.437476,0.117379,1.340875,1.031979,0.905988,1.729265,0.811014,2.032110,0.919247,1.437192,1.836708,0.684598,1.741726,0.658874,0.280726,0.304474,-0.395434,0.918899,0.134168,0.368951,1.344623,0.578809,1.475380,0.486544,1.183068,0.956672,0.639333,0.874960,0.586997,0.918063,-0.181360,-0.383371,-0.632691,-0.660097,-0.643769,-0.676846,-0.461105,-0.124140,0.240331,0.107273,0.254150,-0.206357,0.148415,0.660735,0.656410,1.230973,0.550167,1.013329,0.415365,0.158129,0.572728,0.033649,0.457081,0.793130,1.092871,1.885561,0.828840,1.769400,1.354409,0.974536,1.786099,0.830078,1.860658,0.931982,0.823889,0.508333,-0.614473,0.281576,-0.631354,0.149900,0.408646,0.494243,1.188201,0.579028,0.923063,0.710609,0.816646,0.983807,0.813632,1.123918,0.418480,-0.006229,-0.153333,-0.454002,-0.429611,0.111743,-0.097011,0.585008,0.718090,0.428300,0.638900,-0.259137,0.596252,0.013661,0.128599,0.186152,-0.532483,0.192809,-1.243809,-0.857581,-0.956899,-1.502445,-0.800748,-1.217266,0.131639,-0.100789,-0.087430,0.289716,-2.312420,-3.903719,-2.112897,1.626564,0.940927,-0.020274,0.508263,-0.880340,-1.080957,-0.884522,-1.272080,-0.836522,-1.109969,-0.128126,-0.450878,-0.031304,0.071183,-0.295201,-0.222854,-0.054457,0.174325,-0.135050,-0.220964,-0.243245,-0.521696,-1.109386,-1.140013,-1.046487,-1.255318,-1.167012,-1.002783,-0.438483,-0.246017,-0.391662,-0.245810,-0.670344,-0.448496,-0.214704,-0.814676,-0.350353,-1.138691,-1.875624,-1.976131,-2.673298,-2.071036,-2.775553,-1.901941,-1.084786,-1.459391,-0.051019,-1.039592,-0.105690,0.057242,-0.799719,0.555487,-0.306175,0.283790,0.276337,-0.639404,-0.102827,-1.328948,-0.507698,-1.038327,-1.502650,-0.305513,-1.316429,0.000000,0.000000,0.000000,0.000000,0.000000,0.000000,0.000000,0.000000,0.000000,0.000000,0.000000,0.000000,1.000000
2.235958,1.026530,1.420217,0.577332,-0.727836,-0.004928,-0.738182,-0.172202,-0.511175,0.361812,0.600344,0.502116,1.177865,0.564089,0.628266,0.691314,1.126045,0.855418,0.635616,0.616537,0.434154,-0.277981,-0.590006,-0.371187,-0.600756,-0.606687,-0.436471,0.112559,0.642400,0.407851,0.592056,0.248510,0.115060,0.741855,0.003341,0.290129,-0.013287,-1.406088,-1.358902,-2.344537,-1.846138,-2.226147,-2.113528,-0.314969,-1.105646,0.554943,0.013455,0.146188,1.390046,-0.207421,1.309407,0.896257,0.803074,1.637922,0.084883,0.811060,-0.440403,-0.137718,0.115734,-1.244846,0.420020,-0.455381,0.064205,0.959930,0.131424,1.305299,-0.100611,0.800202,0.842918,0.235009,1.033070,-0.317021,-0.030647,-0.717336,-1.070281,-0.518650,-1.041082,-0.125909,-0.219919,0.148978,1.042569,0.505932,1.048910,0.545046,0.972810,1.189331,0.720567,1.259865,1.111849,0.594062,0.169899,0.064755,-0.258033,-0.650531,-0.411201,0.228710,-0.071756,0.511731,0.462133,0.102427,0.674440,0.154783,0.454915,0.485591,0.302353,0.447827,0.593352,-0.397520,-0.389670,-0.589390,-0.367033,-1.133861,-3.540931,-5.821397,-3.239311,1.536562,1.060219,0.992079,1.013871,0.428512,0.890113,0.794689,0.835133,0.993292,0.015203,-0.585351,-0.830329,-0.866601,-0.338921,-0.824557,-0.483984,0.064808,0.475287,0.985470,0.918037,0.622481,0.596988,0.719550,0.963875,0.453924,0.886314,0.341355,0.106584,-0.332419,-1.193563,-0.573877,-1.087605,-0.973694,-0.478613,-0.381812,0.207282,-0.585944,-0.014224,-0.168107,-0.562531,0.131861,-0.960590,-0.875142,-0.567929,-1.018283,-0.993459,-2.043063,-1.572978,-1.150339,-1.263561,-0.528501,-0.973262,0.237396,-0.234994,-0.036783,0.656629,-0.020941,0.599160,0.477912,0.130443,0.748774,0.536169,0.411241,0.000000,0.000000,0.000000,0.000000,0.000000,0.000000,0.000000,0.000000,0.000000,1.000000
1.182328,1.480534,1.536696,1.069085,1.252635,1.389912,1.246678,1.527215,0.899130,0.216158,0.039672,-0.154298,0.315296,0.085294,0.071783,0.621235,0.909006,1.372584,1.470683,1.202468,1.143664,1.161749,1.458420,1.110996,1.242465,1.178228,0.666796,0.653892,-0.289286,0.036160,-0.045389,-0.334239,0.212272,0.218644,0.751350,0.397996,0.326154,0.778833,0.063857,0.705115,0.201323,-0.271244,0.216574,-0.112385,-0.132381,-0.695318,-1.025820,-0.205097,-0.560122,0.140187,-0.124963,0.440296,0.786467,0.298437,1.168326,0.792239,0.856319,1.245558,0.724338,1.081283,1.238907,0.933671,1.231458,0.119650,0.137087,-0.077927,-0.597109,-0.241409,-0.090851,0.439312,0.686768,0.391482,1.284171,0.113831,0.862720,0.759053,0.359833,0.872701,-0.053155,0.796396,-0.578918,-1.062581,-0.318486,-1.194640,-0.393022,-0.618536,-0.143879,0.259754,-0.124076,1.043809,-0.071271,0.811463,0.651519,-0.122727,1.141357,-0.064166,0.648860,-0.437168,-1.096677,-0.556914,-1.528532,-0.751154,-1.265644,-0.672574,-0.221250,-0.574099,0.144738,-0.421789,-0.017104,0.060323,-0.144811,-0.173892,0.259566,0.261001,0.041592,-1.888779,-5.480068,-6.561034,-2.237238,-0.284938,-0.681006,-0.005686,0.111620,-0.113332,0.429020,0.269708,-0.041822,0.480536,-0.117973,0.474942,-0.016410,-0.004979,-0.451900,-1.385700,-0.606795,-1.129906,-0.998747,-0.304262,-0.771770,0.308390,-0.501464,0.016986,0.413621,0.049961,0.435159,-0.319226,0.443507,0.165181,-0.558096,-0.023609,-1.600788,-0.539234,-1.230697,-1.230188,-0.863168,-1.090983,-0.204603,-0.464888,-0.558592,-0.435113,-0.932382,-0.824432,-0.324101,-0.357140,-0.102478,0.062204,-0.159487,-0.985825,-0.710132,-0.805972,-0.890552,-0.765239,-0.676600,0.007618,0.353104,0.283329,0.000000,0.000000,0.000000,0.000000,0.000000,0.000000,0.000000,0.000000,0.000000,0.000000,0.000000,1.000000
0.170632,-0.306006,-3.516539,-6.112210,-3.727218,-0.006828,-0.327438,0.135835,0.451150,0.337328,0.440158,0.909403,0.169107,0.809813,0.347794,0.604421,0.594892,0.232911,0.268496,-0.823587,-0.537282,-0.350915,-0.951512,0.097830,-0.421794,0.375780,0.232674,-0.036909,0.854604,0.372904,0.743106,0.271285,0.372036,0.924123,-0.283451,0.438236,-0.833444,-0.586560,-0.368685,-1.117838,-0.344911,-0.816251,-0.011586,0.033932,-0.212594,-0.059482,-0.365498,-0.599166,-0.002949,-0.015002,0.200050,0.353978,0.372280,-0.456999,-0.436037,-0.331172,-0.530379,-0.385577,-0.358136,0.161138,0.693588,0.591320,0.877876,0.804255,0.599140,0.990785,0.617129,1.100966,0.842406,0.602174,0.596612,-0.539021,-0.310540,-0.427447,-0.521840,-0.136582,-0.465070,0.761758,0.746893,0.629727,1.070833,0.662792,1.005082,0.984574,0.705293,1.037085,0.167799,1.025853,0.225339,-0.540701,0.022692,-0.834257,0.017296,-0.337610,-0.274101,0.685687,0.327652,1.116777,0.638429,0.775143,1.518281,0.405611,1.303151,1.105403,0.470753,1.073146,-0.014624,0.116266,-0.276227,-0.804874,-0.310139,-1.104516,-0.235237,0.044170,0.012293,0.802073,0.144947,0.992343,0.369373,0.776828,1.617589,0.206976,0.459306,-3.657701,-5.980805,-1.812193,-0.485252,0.083829,-0.452230,-0.452935,0.001111,-0.484268,0.680141,0.479196,0.528414,1.144910,0.236071,1.057456,0.225430,0.510622,0.625812,0.612464,0.656604,-0.486015,-0.148097,-0.357533,-0.485797,-0.059713,-0.333099,-0.180328,0.203321,-0.069347,0.349973,0.124295,0.129118,0.611899,0.363459,0.380846,0.313693,0.119567,-0.187125,-0.753509,-0.798293,-0.734331,-1.170979,-0.855597,-0.422028,0.026254,-0.040631,-0.567456,0.124916,-0.005859,0.347133,0.556655,0.372532,1.119864,0.555325,0.290478,-0.410044,-0.968028,-0.579073,-0.546013,-0.597722,0.000000,0.000000,0.000000,0.000000,1.000000
0.364263,1.089350,-1.574002,-5.288274,-2.113028,-0.001691,0.441104,0.339440,-0.104474,0.572105,0.051786,0.833514,1.177069,0.762282,1.644615,0.821391,1.305367,1.024568,0.721012,1.238751,0.916876,1.321784,0.230980,0.249715,0.306111,0.003802,0.372272,0.323206,0.185900,0.704268,0.462500,0.721255,0.752540,0.520165,1.004629,0.939057,0.814032,0.865829,0.650923,0.474505,-0.060618,-0.271375,-0.135120,-0.461531,-0.466071,0.047899,0.360672,0.647898,-0.005461,0.434334,0.600175,0.623619,1.098299,0.785405,1.375371,1.292773,0.769899,0.478399,-0.403527,-0.096604,-0.022741,0.015191,0.043265,0.306811,1.198341,1.129830,1.160745,1.344449,1.161858,1.362988,1.296043,1.317980,1.306843,0.535464,0.933339,0.069482,-0.169008,0.149178,-0.268201,0.009822,-0.117975,0.472349,0.825839,0.444513,1.008240,0.647225,0.411357,0.995976,0.424016,0.737268,0.936141,0.449954,0.716831,-0.288014,-0.213410,-0.406380,-0.507557,-0.285075,-0.291785,0.443042,0.284053,0.880947,0.705560,0.733628,1.095754,0.440336,0.989382,0.276336,0.297884,0.603309,0.017142,0.577075,-0.520481,-1.019557,-0.482385,-0.893877,-0.277874,-0.840080,-0.394810,0.466306,-0.515136,0.567336,0.113692,0.393099,1.094733,-0.058325,-0.944768,-4.185231,-4.930020,-0.710509,-0.437154,-0.574922,-0.662346,-1.042187,-0.305205,-1.162348,-0.150855,-0.084556,-0.387564,0.526351,-0.457211,0.362365,0.020123,-0.131002,0.505621,-0.468862,0.214976,-0.287677,-0.841543,-0.608408,-1.433632,-0.633916,-1.208269,-1.126093,-0.255972,-0.821396,0.100229,-0.493407,-0.366442,-0.036766,-0.650306,0.137456,-0.656018,-0.275938,-0.156735,-0.980167,-0.926000,-1.851144,-1.562079,-1.551794,-2.284896,-1.359426,-1.601546,-1.259307,-0.804028,-1.227164,-0.060433,-0.706010,-0.523364,0.073965,-0.737616,0.096157,-0.207382,-0.393954,-0.248375,-1.604967,-1.218539,1.000000
0.630130,-1.076330,-0.838831,-1.774563,-1.427385,-1.186733,-1.480677,-0.488624,-1.198620,-0.208701,-0.223468,-0.212053,0.374147,-0.310675,0.238991,0.121191,-0.505366,0.348241,-0.432243,-0.096855,-0.703495,-1.628866,-0.423633,-1.839102,-1.221698,-0.964255,-0.882311,0.378268,-0.418339,-0.165148,0.505167,-0.663511,0.933366,-0.373107,0.115760,0.216033,-0.676196,0.000833,-1.739617,-1.591063,-1.300764,-2.391652,-1.289663,-2.057736,-1.097019,-0.781182,-1.127571,0.217345,-0.333615,-0.027459,0.397360,0.122331,1.037598,0.138092,0.928015,0.366607,-0.844493,-0.371643,-1.468012,-0.581815,-0.566843,-0.425585,0.678828,0.256215,0.797460,0.533137,0.501307,0.675243,0.330202,1.079665,0.935996,0.271250,0.610395,-0.472639,-0.447510,-0.993753,-0.647660,-0.594116,-0.724626,0.107181,0.060930,0.903824,0.788712,0.108316,1.103690,0.501149,0.595950,0.851046,0.283770,0.786839,0.383391,-0.029666,-0.249862,-0.824019,-0.330863,-0.573470,-0.129890,0.219932,0.118222,1.222126,0.482806,0.443043,1.091725,0.304982,0.921748,0.377542,0.633341,0.876466,-0.294226,0.869699,-0.444628,-0.681330,0.034972,-0.940780,-0.276009,-0.638243,-0.078638,0.871716,0.373286,1.250942,1.167989,-0.690041,-3.289389,-6.095989,-1.330925,1.335941,0.096419,0.884125,-0.574233,-0.203256,-0.493723,-0.701522,-0.122502,-0.885344,0.437831,0.425939,0.177462,1.288634,0.202851,1.231117,0.993824,0.625347,1.492254,0.438014,1.181728,1.072374,0.052487,0.976876,-0.230536,0.315817,0.336434,-0.265065,0.793257,0.372744,1.108192,1.135646,0.715102,1.297315,0.911612,1.189585,1.311503,0.619048,1.075264,0.489829,0.430191,-0.033068,-1.069949,-0.272931,-1.232391,-1.004093,-0.329263,-0.587970,0.384058,0.569342,1.036515,1.429419,1.026056,1.546060,0.904180,1.768270,1.622929,1.424542,0.000000,0.000000,0.000000,0.000000,0.000000,1.000000
0.297686,0.185565,0.330199,-0.064466,0.105691,-0.607338,-1.267604,-1.102075,-1.298947,-1.286840,-0.951204,-0.521143,0.121696,-0.234485,0.490576,0.184722,0.097850,0.596558,0.056741,0.574190,0.056732,0.302930,0.217594,-1.363169,-0.539715,-1.256864,-0.866783,-0.526785,-1.187843,0.369745,-0.221366,0.384587,0.004493,-0.407287,0.477560,-0.065133,0.229438,-0.130561,-0.653709,0.021180,-2.220773,-1.716211,-1.740460,-2.070571,-0.854596,-1.889335,0.065934,-0.284648,0.027083,1.144094,-0.191817,1.246144,0.498910,0.189561,1.207743,0.284853,1.247587,-0.423858,-0.562223,-0.435116,-0.977807,-0.177262,-0.712001,0.593963,0.656459,0.810779,1.199477,0.268788,0.750254,0.679721,0.842520,0.638714,0.822690,0.624186,0.093200,-0.972846,-1.023771,-0.977234,-1.500910,0.215371,-0.192693,1.043664,0.521698,0.556608,1.784644,0.449384,1.382170,0.431523,1.046412,1.258608,0.194654,0.909228,-1.058748,-0.125401,-0.640655,-1.088033,-0.351111,-0.382450,0.464246,0.496533,0.291875,0.566959,0.513262,0.757396,0.501201,-0.175493,0.556449,-0.264583,-0.986463,-0.215745,-0.772602,-0.142536,-1.094319,-3.574668,-6.006479,-2.727975,2.005788,0.482796,1.166257,0.935405,0.367024,1.175421,0.469325,0.713932,-0.089246,-0.918397,-0.440958,-0.996962,-0.443553,-0.800541,0.254217,0.710588,0.609901,0.864646,0.578693,0.843082,0.904503,0.799476,0.970691,0.742574,0.643269,0.741934,-0.784782,-0.388429,-0.535641,-0.793713,-0.484223,-0.559316,0.183848,0.504829,0.375060,0.242072,0.388128,0.192872,0.533281,-0.054149,0.224738,-0.351678,-0.147458,-0.160179,-1.462307,-0.662264,-0.660500,-0.646145,0.242984,-0.103050,0.825001,0.668562,0.888652,1.674549,0.591465,1.631941,1.020236,1.232341,1.496541,0.803895,1.897452,0.065452,-0.035503,0.000000,0.000000,0.000000,0.000000,0.000000,0.000000,0.000000,0.000000,1.000000
0.590422,-0.140144,0.718803,-0.525775,0.442235,-0.070533,-0.064838,-0.340412,-1.484629,-1.141559,-1.454511,-1.282388,-1.242919,-0.953958,0.148459,-0.225375,0.228223,-0.117258,0.087550,0.165697,0.168701,0.132562,0.258372,-0.207586,0.263744,-0.978074,-1.303011,-0.937910,-1.467351,-1.145347,-1.224344,-0.776325,-0.207411,-0.232102,-0.430674,-0.302212,-0.448399,-0.242027,-0.456866,-0.640725,-0.612670,-1.138650,-0.457260,-1.756853,-1.669271,-1.116809,-1.449724,-0.680980,-0.587148,-0.398050,0.330484,-0.274134,0.978021,0.156258,0.428207,0.752162,0.140477,0.937890,0.162406,0.760675,0.470348,-1.210092,0.115401,-1.020636,-0.513549,-0.390356,-0.753111,0.889737,-0.212358,0.951003,-0.196075,0.228697,1.226265,-0.051411,0.521530,-0.026902,0.261013,0.611316,-1.228420,-0.568277,-1.238310,-0.974862,-0.117934,-1.209963,0.661352,-0.350532,0.409549,0.805303,0.258438,1.330984,0.696037,0.793976,1.020466,0.757812,1.245850,-0.163648,-0.244486,-0.621246,-1.062665,-0.434259,-0.154291,-0.070846,0.223123,0.320955,0.782466,0.495463,0.852918,0.547461,0.019721,0.445991,1.041983,0.641426,1.113176,-1.802842,-4.887642,-6.069663,-1.147453,0.848703,-0.288586,1.335259,0.540949,0.836554,1.146803,0.612920,1.371014,0.691108,0.907042,1.167667,0.875767,0.344402,-0.035089,-0.056392,-0.291357,-0.270108,0.115420,0.661853,0.842298,0.933324,0.793033,1.181300,1.150562,0.859211,1.879194,1.035601,1.202620,1.613391,-0.075215,-0.029834,-0.360828,-0.209311,0.049314,-0.540561,0.599399,-0.285882,0.414956,0.367383,-0.260862,0.476894,-0.336747,0.855841,0.586254,0.246764,1.074810,-0.407448,0.508640,-0.421921,-0.415815,0.085713,-0.392825,1.408929,0.306169,1.264270,1.720581,1.083804,0.000000,0.000000,0.000000,0.000000,0.000000,0.000000,0.000000,0.000000,0.000000,0.000000,0.000000,0.000000,0.000000,1.000000
0.209733,-0.624729,-3.736906,-5.732335,-3.801994,0.365016,-0.759665,0.135236,0.355178,-0.146229,0.555293,0.044623,0.403226,0.408285,-0.021533,0.531393,0.278975,0.021500,-0.545556,-0.514803,-0.743844,-0.772517,-0.630733,-0.086303,0.128127,0.279269,0.166165,0.314171,0.589486,0.144553,0.807409,0.776893,0.159122,1.035592,-0.161484,-0.687710,-0.639303,-0.928971,-0.359369,-1.010320,-0.276811,-0.429817,-0.605773,0.115940,-0.860923,-0.149640,-0.682399,-0.219263,0.311936,-0.525081,0.422005,-0.579135,-0.428872,-0.413673,-1.232503,-0.273123,-1.054693,0.396651,0.076253,0.057488,1.158762,0.318465,0.799287,0.696309,0.706471,1.154598,0.367110,1.030633,0.768296,-0.217272,-0.020051,-0.636537,0.096589,-0.380794,-0.210651,0.640966,0.466072,0.965447,0.807356,0.794607,0.973587,0.720724,0.980857,0.677436,0.797858,0.592599,-0.190915,-0.040079,-0.690802,-0.602112,-0.427774,-0.836292,-0.142455,0.342980,0.482777,0.708127,0.470988,1.114797,1.129965,1.431963,1.407721,0.959954,1.021711,0.678672,-0.078007,-0.208269,-0.511456,-0.680142,-0.400970,-0.439461,0.430273,0.367058,0.588946,0.556755,0.390296,0.680916,0.517985,0.930607,1.355756,0.895692,-0.153131,-4.481653,-5.414225,-1.308580,-0.394572,0.009240,-0.571672,-0.256701,0.206829,-0.036809,0.899226,0.455194,0.612368,0.725419,0.636067,1.061263,0.461042,0.865587,0.472107,0.145271,0.121624,-0.428200,-0.379272,-0.348194,-0.665800,-0.167013,-0.032234,0.483428,0.361680,0.747161,0.851948,0.656501,0.749112,0.697111,0.748463,0.808498,0.647589,0.593925,-0.129452,-0.256199,-0.646697,-0.893126,-0.716779,-0.760365,-0.294417,0.060582,-0.056200,0.405157,-0.258806,-0.172433,0.110321,0.117486,0.445741,0.331274,0.385455,0.445436,-0.196078,-0.256648,-0.902086,-0.445079,-0.413119,0.000000,0.000000,0.000000,0.000000,0.000000,0.000000,1.000000
0.868220,0.297807,-3.479600,-6.489816,-2.508439,-0.564770,-0.223120,-0.482590,-0.688795,0.167868,-0.252369,0.633835,0.571401,0.340293,0.761465,0.426226,1.027773,0.468570,0.665686,0.587425,0.019708,0.078884,-0.438916,-0.619912,-0.398631,-0.841741,-0.416773,-0.210011,0.273980,0.319747,0.501907,0.854743,0.569437,0.664827,0.629449,0.638685,0.753566,0.582576,0.575306,-0.075225,-0.417506,-0.641467,-1.105192,-0.887535,-0.949539,-0.595068,-0.061502,-0.213059,0.241509,-0.175462,-0.471771,0.032229,-0.080170,0.326632,0.252893,0.249589,0.393749,-0.177476,-0.409725,-0.882496,-0.874465,-0.336239,-0.794449,-0.179580,-0.262930,0.510390,0.190328,0.208472,0.862106,0.248562,0.888388,0.712816,0.314549,0.839357,0.373454,0.372081,0.058093,-0.955987,-0.167475,-0.840590,-0.582304,-0.343204,-0.316138,0.757231,-0.088591,0.757422,0.866989,0.141146,1.114560,0.358065,0.528683,0.867241,0.187762,0.978924,0.065856,-0.565226,-0.241121,-0.967624,-0.206241,-0.519310,-0.656762,0.685622,0.418614,0.814149,0.651047,0.159439,0.688742,0.081194,0.127095,0.652968,0.309716,0.295844,0.329287,-0.121409,-0.742206,-0.893757,-0.920280,-0.923125,-0.728590,-0.512520,-0.244281,0.413091,0.817225,1.071490,-0.241350,-2.624167,-5.284875,-3.031026,1.029641,0.404023,0.825555,0.586047,-0.310162,0.121149,-1.079756,-0.461750,-0.778844,-0.853104,-0.080639,-0.517740,0.668066,0.650676,0.048737,1.320384,0.634767,0.993774,0.861570,0.364156,1.061342,0.452490,0.421163,0.907030,-0.616124,-0.231074,-0.499998,-0.382129,-0.177315,-0.667339,0.634810,0.592365,0.388797,0.940715,0.124212,0.994689,0.756850,0.771357,1.104184,0.471945,0.798168,0.038068,-0.718099,-0.525095,-1.339071,-0.892520,-1.291290,-0.943422,0.114080,0.547378,1.088782,0.738393,1.188559,1.400710,0.913886,1.647520,1.189949,0.000000,0.000000,1.000000
0.506958,1.045115,1.441433,0.843509,0.326811,1.697181,0.256566,1.104835,1.127508,0.291512,1.686499,-0.009855,0.160287,-0.179796,-0.901497,0.100768,-0.786050,-0.003199,0.446662,0.380047,1.243086,0.886268,0.906137,0.970079,0.624787,1.119692,0.790653,0.814589,0.423997,0.688046,0.292446,-0.662835,-0.546002,-0.625996,-0.383896,-0.398386,-0.552938,-0.018655,-0.137651,0.559311,0.194802,0.041247,0.386809,-0.434501,0.380702,0.316894,-0.076416,-0.008014,-0.341113,-0.645770,-0.808357,-0.895627,-0.548462,-0.985034,-0.061101,0.445606,0.354496,1.145119,0.312614,0.998134,0.690767,0.567402,1.213423,0.244020,0.911173,0.919453,0.361875,0.644953,-0.867067,-0.322796,-0.438595,-0.584009,0.032166,-0.351266,0.911043,0.685974,0.356606,1.689316,0.211703,0.548980,0.810475,0.161133,1.437368,0.293910,0.526889,-0.105373,-1.340574,-0.055755,-0.882320,-0.276725,0.093308,-0.150118,1.306276,0.333189,1.256394,0.891139,0.749487,1.239272,0.106984,1.248184,0.821848,0.024763,0.777224,-1.154999,-0.798811,-1.223377,-1.093837,-0.630218,-0.748231,0.446785,0.097225,0.024108,0.565863,0.615313,0.872610,-0.529829,-4.565463,-6.489824,-2.266228,0.617640,-0.313298,-0.858899,-0.586568,-0.786443,-0.678935,-0.164295,-0.409821,0.285026,0.645411,0.302925,1.233278,0.176719,0.725670,0.352970,0.531093,0.824180,-0.282725,0.297283,-0.277495,-1.137864,-0.751299,-1.369447,-0.772982,-0.905752,-0.379254,0.191219,-0.003662,0.278391,-0.430567,-0.348968,0.135394,0.181014,0.378938,-0.013541,0.098602,-0.093207,-1.151345,-1.263067,-1.807877,-1.762350,-2.259738,-2.057557,-1.351142,-0.911300,-0.516829,-0.258558,-0.024788,0.012726,0.265375,0.429065,0.217710,0.557010,1.006238,0.296725,-0.056676,-1.167594,0.000000,0.000000,0.000000,0.000000,0.000000,0.000000,0.000000,0.000000,0.000000,0.000000,0.000000,1.000000
0.888815,0.336856,-2.761554,-5.440118,-2.978521,0.532610,0.170372,-0.516767,-0.396142,-0.391096,-0.527969,0.001757,-0.130512,0.175456,0.821145,0.360232,1.141409,0.585258,0.557246,0.731432,0.376563,1.067356,0.043881,0.294337,0.215012,-0.747874,-0.500528,-0.859985,-0.689274,-0.454425,-0.432708,0.402465,0.106143,0.466230,-0.060994,-0.200509,0.205873,0.350908,0.449116,0.315508,0.126452,0.325343,-0.694144,-0.828637,-1.298060,-1.311395,-1.645487,-1.704974,-1.111810,-0.674781,-0.348213,-0.078470,0.106497,0.201458,0.312918,0.574152,0.383265,0.534722,1.021649,0.620321,0.181427,-0.521724,-0.746714,-0.333205,-0.497192,-0.058510,-0.152344,0.203967,0.959866,0.696673,0.724133,0.818990,0.651376,0.878291,0.861063,0.836460,0.435382,0.752033,0.059547,-0.420637,-0.293557,-0.444314,-0.603263,-0.503928,-0.148628,0.368018,0.761404,0.452484,1.039375,0.727407,0.468566,0.859683,0.656159,0.786380,0.715248,0.161135,0.220851,-0.561287,0.112609,-0.249956,-0.624136,0.750761,0.221058,1.300863,0.067066,0.423348,0.489828,-0.248227,1.042239,0.195436,0.574153,0.579139,-0.198797,0.084380,-1.293724,-0.286233,-0.904438,-0.965289,0.241912,-0.214703,1.054222,0.908888,-0.883791,-3.673446,-6.159885,-0.564340,0.573483,0.476080,0.991430,-0.054275,0.481632,-0.908413,-0.518406,-0.357242,-0.828242,0.204092,-0.324546,0.558928,0.627435,-0.027344,1.284192,0.440493,1.221662,1.227139,-0.089023,1.330470,0.118289,0.528671,0.346159,-0.755152,0.119492,-1.092444,-0.411583,-0.475419,-0.294661,0.794399,-0.267186,0.625361,0.514629,0.328115,1.203540,-0.120508,0.645914,0.338741,0.179988,0.517029,-1.245702,-0.982459,-1.184131,-1.309182,-1.124337,-0.862261,0.080643,0.424577,0.735956,1.056599,0.587438,0.995854,0.912138,0.625679,0.760656,0.652479,0.935766,0.000000,0.000000,0.000000,0.000000,1.000000
0.362082,0.608397,-0.165844,0.598474,0.280247,-0.265169,-0.111048,-1.613589,-0.280733,-0.868838,-0.399699,0.179761,0.017714,1.012319,0.083929,0.702632,0.843673,0.142080,1.146309,-0.013188,0.990276,0.681855,0.032711,0.073037,-1.600361,-0.069514,-1.186729,-0.493886,0.129355,-0.431701,1.308767,0.109085,0.448383,0.699621,0.181689,0.349093,-0.274250,0.138798,0.053223,-0.701137,-1.010787,-1.672449,-1.592137,-1.188502,-1.039027,-0.267935,0.498243,0.535098,1.507817,1.009658,1.129354,0.892600,0.833164,1.343894,0.930999,1.233451,0.950799,-0.232853,0.474626,-1.062641,0.150352,-0.408416,-0.273548,1.013479,0.176910,1.482729,0.753416,0.458091,1.235490,0.007801,1.171721,1.142026,0.753654,1.432109,-0.245243,0.192675,-0.751400,-0.943148,0.089091,-1.341543,0.517362,-0.202878,-0.070581,1.137205,-0.270165,0.824544,0.594773,0.231275,1.071575,0.033783,0.731138,0.541969,-0.147311,-0.280675,-1.105756,-0.234963,-0.655799,-0.502460,0.212605,-0.078060,1.666813,0.958123,0.808990,0.905318,0.145529,1.428581,-0.046304,0.782642,0.589176,-0.365295,0.176758,-1.379449,-0.278274,-0.908832,-1.418633,0.187114,-0.935544,0.752588,0.895915,0.921780,2.045699,-0.839178,-3.193663,-6.218786,-1.815280,1.335492,-0.619328,0.716255,-0.983407,-0.605739,-0.727172,-1.239007,-0.363157,-0.301525,0.299949,0.700962,0.505435,0.293340,0.644009,0.300487,0.875634,0.471744,0.287292,0.603727,-0.432059,-0.210966,-1.274233,-1.098965,-1.004432,-1.373440,-0.075742,-0.303391,0.417751,0.491672,0.318748,0.933923,-0.389126,0.952249,-0.227511,-0.293563,0.403870,-1.284836,-0.848444,-1.640429,-1.972799,-0.997628,-2.566479,-0.707460,-0.828005,-0.402592,0.419160,-0.632576,1.012560,0.449114,0.681580,1.249398,-0.358686,1.308329,-0.114451,0.100129,-0.277112,-0.899362,0.000000,0.000000,0.000000,0.000000,0.000000,1.000000
1.717186,0.672517,0.720999,0.688523,0.046306,1.433094,-0.252208,0.539369,0.032749,-1.258119,-0.213099,-1.570012,-0.490217,-0.510628,-0.767344,1.241079,-0.279873,0.961156,0.365523,0.490308,1.207151,-0.176657,1.064465,0.467409,0.085258,1.170455,-0.851321,-0.447609,-1.449380,-1.735856,-0.762615,-1.904022,-0.057106,-0.810506,-0.480034,0.659455,-0.861732,0.159943,-0.764049,-0.825974,-0.384504,-1.064032,-0.037636,-1.581632,-1.909912,-1.519810,-2.095498,-0.842314,-1.775538,-0.539422,-0.012571,-0.070937,0.897619,0.665157,0.567279,0.721386,0.795790,0.669686,0.777270,0.281885,0.379262,-1.468491,-0.726170,-1.000225,-1.015712,0.006775,-0.877814,0.981785,0.325147,0.616769,1.111931,-0.129249,1.178724,-0.159139,0.737815,0.766913,0.227431,-0.052981,-1.477248,-0.605809,-1.548722,-1.420036,-0.569815,-0.221385,0.184400,0.644467,0.361456,0.681165,0.710140,0.069542,0.997140,0.465111,0.813256,0.282172,-1.348271,-0.097211,-1.456978,-0.397205,-0.988878,-0.458622,0.750898,-0.488260,1.255659,0.363685,0.920878,1.285071,-0.130811,0.909420,-0.172482,0.590887,0.048372,-0.766023,-0.824374,-1.928340,-0.851427,-1.017247,-0.566542,0.096999,0.421622,0.346460,0.658202,0.427017,0.745719,1.125560,0.576941,0.161072,-4.500712,-4.198498,-0.442954,-0.126958,-0.098009,-1.214506,-0.419950,-0.824130,-0.181500,1.031007,0.145647,1.333914,0.698520,0.480531,1.271596,0.142085,1.618776,0.174162,0.686598,0.554827,-1.158477,0.357254,-1.316294,-0.316994,-0.080496,-0.197385,1.354358,0.358270,1.207241,0.906067,0.665940,1.409479,0.474083,0.795777,0.850206,0.760047,0.503541,-1.037780,-0.474591,-0.931173,-0.680874,-0.976972,-0.593973,0.126617,0.395726,0.122347,0.546808,0.698863,0.405370,1.466583,1.321612,1.627892,1.627369,0.902907,0.748066,-0.379937,0.447993,0.299618,-0.134320,1.511539,0.000000,1.000000
0.842213,0.685659,0.920229,-0.301571,-0.585002,-0.398141,-1.193060,-0.088572,-0.811150,-0.049768,0.741749,0.264028,1.582786,0.548166,1.197374,0.888857,0.667621,1.304414,0.806481,0.669336,0.871078,-0.067007,-0.333024,-0.239990,-0.505863,-0.486609,-0.333753,0.175515,0.273605,0.685444,1.172997,0.605828,0.372967,0.665335,-0.147660,0.495359,-0.219174,0.225672,-0.268984,-1.719525,-0.931241,-2.110272,-1.659878,-1.329749,-1.641039,-0.367478,-0.909002,0.335386,0.091925,-0.248625,0.518053,-0.656096,0.526774,0.027812,-0.154578,0.220282,-1.602714,-0.469957,-1.550180,-1.272664,-1.132593,-1.343132,0.246404,0.093959,0.543462,0.706766,0.386302,0.656490,0.327984,-0.081034,0.477267,0.198760,-0.289551,-1.184592,-1.882265,-0.659996,-1.590476,-0.411423,-0.258703,0.053244,0.954954,-0.108812,1.262130,0.723942,0.480516,1.532296,-0.368888,1.261906,0.226017,0.097356,-0.098817,-1.405826,-0.206452,-1.193358,-0.315341,0.306619,0.373443,1.111769,0.499589,1.414332,1.172902,1.110041,1.557876,0.208582,0.754375,0.270840,-0.034167,-0.153842,-0.819151,-1.041722,-1.019315,-1.148199,-0.542715,-0.169486,0.217905,0.902733,0.541190,0.772851,0.686387,1.019394,1.762562,0.889728,-0.380989,-4.483230,-5.836184,-0.859402,-0.152350,-0.605109,-0.096853,-0.789489,0.173895,-0.506257,1.053538,0.435500,0.475572,1.361040,0.072640,1.636211,0.569365,1.077139,1.353460,-0.117818,0.374696,-1.110244,-0.196985,-0.637150,-0.778952,0.313969,-0.027311,0.805479,0.560324,0.636530,1.211748,0.815966,1.162606,0.565988,0.436152,1.164284,-0.013645,-0.072385,-0.734688,-1.058685,-1.089472,-1.350137,-0.952411,-0.458206,-0.772838,-0.274566,-0.265151,-0.204193,0.401417,-0.006556,0.856304,0.731855,0.570213,1.565197,-0.407627,0.223564,-0.770238,-0.384508,0.179868,-0.626529,1.162002,0.000000,0.000000,0.000000,0.000000,1.000000
1.042691,1.514260,0.943718,1.851677,0.052523,0.267922,-0.541330,-0.328639,0.440074,-0.708076,0.931416,0.541259,1.147496,1.319598,0.717259,2.010606,0.502253,1.596892,1.857589,0.806428,1.524203,0.089919,0.380061,-0.086194,-0.325484,0.418467,-0.690890,0.282586,0.551900,0.489761,1.390152,0.264412,1.266435,0.828507,0.537874,1.070656,0.730468,1.694712,0.372513,-1.997185,-3.899453,-1.579909,0.499144,-0.534610,-0.680566,0.008351,-0.000032,0.619015,0.441311,0.864614,0.680111,0.396303,0.695301,0.713481,0.482068,0.304415,0.480936,0.129786,-0.844927,-0.922232,-0.879021,-0.919013,-0.775498,-0.590756,-0.304279,0.040857,0.201856,0.377633,0.153758,0.244815,0.505371,0.180111,0.314197,0.378387,-0.443125,-0.571540,-1.351986,-1.673511,-1.163708,-2.018451,-0.974548,-1.460963,-0.610368,-0.689922,-0.965651,-0.120587,-1.006724,-0.236760,-0.237152,-0.553940,0.352333,-0.702581,-0.191602,-0.922336,-1.311174,-0.861377,-2.079449,-0.529737,-1.215150,0.000000,0.000000,0.000000,0.000000,0.000000,0.000000,0.000000,0.000000,0.000000,0.000000,0.000000,0.000000,0.000000,0.000000,0.000000,0.000000,0.000000,0.000000,0.000000,0.000000,0.000000,0.000000,0.000000,0.000000,0.000000,0.000000,0.000000,0.000000,0.000000,0.000000,0.000000,0.000000,0.000000,0.000000,0.000000,0.000000,0.000000,0.000000,0.000000,0.000000,0.000000,0.000000,0.000000,0.000000,0.000000,0.000000,0.000000,0.000000,0.000000,0.000000,0.000000,0.000000,0.000000,0.000000,0.000000,0.000000,0.000000,0.000000,0.000000,0.000000,0.000000,0.000000,0.000000,0.000000,0.000000,0.000000,0.000000,0.000000,0.000000,0.000000,0.000000,0.000000,0.000000,0.000000,0.000000,0.000000,0.000000,0.000000,0.000000,0.000000,0.000000,0.000000,0.000000,0.000000,0.000000,0.000000,0.000000,0.000000,1.000000
1.748715,0.924233,-1.545729,-3.776251,-2.082534,0.656176,-0.184141,-0.635400,0.110971,0.149694,0.704504,0.703836,0.920138,1.049933,0.527345,0.876468,0.903802,0.780569,0.464496,0.658072,0.480037,-0.461138,-0.875113,-0.677682,-0.833683,-0.642411,-0.539033,-0.209072,0.089107,0.374866,0.491963,0.479595,0.267229,0.732887,0.432986,0.420622,0.621927,0.061933,-0.498700,-0.714050,-1.803237,-0.932514,-1.795992,-1.234745,-1.057022,-1.025783,-0.171534,-1.034319,-0.118346,-0.469640,-0.652303,0.275883,-0.586799,0.331654,-0.032603,-0.453485,-0.091318,-1.407746,-0.612848,-1.568132,-1.320274,-0.334384,-1.216435,0.543612,0.085552,-0.070095,0.635651,-0.235952,0.969216,0.064184,-0.012740,0.862813,-0.289255,1.012070,-0.423729,-0.929648,-0.185743,-1.539356,-0.325653,-0.807964,-0.498483,0.467562,-0.251361,1.100200,0.141045,0.485467,0.634381,-0.241113,1.111842,0.217554,0.430301,0.661569,-0.446575,0.064832,-1.076033,-0.785567,-0.208050,-1.216698,0.468042,0.366579,0.622376,1.353239,0.350409,1.534239,0.588732,0.745255,0.990429,-0.336130,1.007315,0.114740,0.084743,-0.481325,-1.475051,-0.492799,-1.549065,-0.888029,-0.013300,-0.787251,0.632300,-0.116638,0.841884,1.365308,0.552887,1.380269,-2.179402,-5.480658,-3.881788,-0.474429,0.845802,-0.873474,-0.597719,-0.185803,-1.254280,0.023030,-0.524207,-0.223360,0.931676,-0.128255,1.272136,0.633242,0.580241,1.246575,0.416648,1.071116,0.819938,0.511770,1.478665,0.267231,0.067667,-0.042500,-0.393402,0.061410,-0.377586,-0.013236,0.336054,0.590849,1.074265,0.755515,0.846166,0.910684,0.757089,0.995930,0.658147,0.726984,0.820237,0.455077,0.048238,-0.539536,-0.701681,-0.789770,-0.801845,-0.810157,-0.541045,-0.334237,0.073878,0.615117,0.474747,0.771483,1.090138,1.286501,1.111039,1.333280,1.258568,1.472742,1.010259,0.000000,0.000000,1.000000
0.747953,0.151783,-0.429079,-1.413862,-0.896134,-0.997786,-1.250157,-0.407630,-0.300670,0.329750,0.532629,0.056592,0.715826,0.334759,0.478987,0.434424,0.131224,0.684126,0.014335,0.203911,-0.652128,-1.558675,-1.101913,-1.318581,-0.894393,-0.853735,-0.738912,0.001317,-0.104691,-0.002676,0.292973,-0.238500,0.359632,0.303046,0.641272,0.562973,0.645810,0.148617,-0.209237,-0.434377,-0.958524,-1.050706,-1.136980,-1.494818,-0.561970,-0.598891,0.102043,-0.152125,0.208821,0.489698,0.372192,0.876142,0.346905,0.780338,0.697479,0.561811,0.902225,-0.366410,-0.648001,-0.541618,-1.216182,0.121967,-0.478932,-0.043035,0.756727,0.094281,1.440259,0.962394,1.273688,1.293941,0.702725,1.219326,0.625115,0.760464,0.814932,-0.582246,0.035311,-0.438788,-0.292198,0.312630,-0.512172,1.115583,0.671788,0.652906,1.033059,0.680862,1.640172,0.535533,1.438504,1.306973,0.867235,0.946920,0.258107,-0.322889,-0.113077,-0.062201,0.120073,0.417505,0.785936,1.781396,1.258618,1.266240,1.640226,1.227461,2.297458,0.737550,1.082209,1.037824,0.166032,0.485271,-0.817688,0.076258,-0.772086,-0.938487,0.506516,-0.205590,1.105989,0.062225,0.654946,1.193471,0.412558,1.914858,0.667554,0.003903,-4.737465,-6.160133,-1.213165,-0.110051,-0.442100,-0.487595,-0.551706,0.061205,0.289856,0.183518,0.832228,0.399625,0.724357,0.749191,0.109308,0.930589,0.128709,0.481418,-0.512114,-1.126736,-0.340187,-1.971248,-0.221918,-1.321230,-0.303298,0.093623,-0.399447,0.739379,-0.246021,0.005031,0.755494,-0.123168,0.983752,0.199934,0.253317,0.193733,-1.249400,-0.298221,-1.576670,-1.547577,-1.419245,-1.707533,-0.412594,-1.194663,-0.170924,-0.481732,-0.743935,0.306977,-0.400426,0.164229,0.178475,-0.004589,0.343429,-1.277575,-0.631487,-1.347863,-0.931228,-0.321570,-0.851703,0.264821,0.000000,0.000000,0.000000,1.000000
-0.315503,0.922857,1.106087,0.519456,1.641540,0.801429,0.909046,0.346745,-0.533656,0.609286,-0.209821,0.517290,0.717897,0.799525,1.338597,1.045715,0.933469,1.371491,1.251560,1.342374,1.154503,0.952066,1.317760,0.696309,0.021409,-0.170415,-0.378732,-0.207467,-0.617535,0.158724,0.421112,0.356812,1.088379,0.092139,0.640550,0.473675,-0.037773,0.185521,-0.693449,0.254546,-0.611072,-1.373838,-1.171292,-1.804273,-0.400007,-1.226798,-0.144373,0.515429,0.095944,1.417253,0.525061,1.011787,1.176968,0.738755,1.766113,0.827485,1.230747,1.239936,0.189171,0.464220,-0.627746,-0.073046,-0.041535,-1.017676,0.892872,0.188671,0.807352,0.954269,0.225424,1.311228,0.493212,0.965397,1.005191,0.153788,1.498136,0.258452,0.072110,0.202801,-0.965233,-0.162092,-1.081298,-1.041916,-0.172762,-0.791656,0.540139,0.486120,0.347244,0.602553,0.012416,0.566181,-0.132026,0.035967,0.516807,-0.087045,0.739729,-0.676887,-1.152912,-0.423386,-1.336093,0.209900,-0.622563,-0.103300,0.276228,-0.042218,0.819338,-0.180209,0.547731,0.248500,-0.154885,0.826985,-0.296720,-0.006900,-0.640497,-1.376894,-0.505590,-1.366773,-0.289891,-0.204320,0.130784,-0.589959,-4.668505,-6.482433,-2.314750,1.091908,0.504649,0.415896,0.420187,0.506549,-0.016096,-0.031046,-0.809755,-1.006949,-0.337002,-0.880191,-0.456515,-0.130882,-0.019256,0.715758,0.080126,0.773205,0.436742,0.048820,0.834425,0.288036,0.445956,0.121855,0.053837,-0.052904,-1.320689,-0.675450,-1.043299,-1.079319,-0.188130,-0.535290,0.245711,0.513553,-0.205285,0.265047,-0.184542,-0.007492,-0.103025,-0.440779,-0.536786,-1.042426,-0.512724,-1.503242,-2.170556,-1.919737,-2.115126,-1.438767,-1.499132,-0.694357,-0.005550,-0.307053,0.467828,0.370837,0.275292,0.732663,0.389801,0.573770,0.497149,0.784862,0.846668,0.335918,-0.303983,-1.060251,0.000000,1.000000
-0.010336,0.406857,0.033672,0.281379,0.680555,0.523466,0.419217,0.135410,0.049231,-0.097158,-0.572876,-1.352247,-0.843009,-1.656049,-0.563884,-0.895614,0.230092,0.615532,-0.295755,1.495333,0.244780,0.658501,0.785650,-0.032071,1.383071,-0.558322,0.777754,-0.202367,-1.853019,-0.768162,-1.862026,-0.383323,-1.456782,-0.754770,-0.134317,-1.323294,-0.395986,-1.493048,-0.848704,-0.993811,-1.816812,-0.513426,-1.322575,-0.501901,-1.058998,-2.218577,-1.129506,-1.910061,-0.766228,-1.161201,-0.512129,0.230354,0.053998,0.582446,0.308113,0.201849,0.548231,0.128043,0.481809,0.600523,0.225344,0.915092,-0.827001,-0.599500,-0.537020,-0.844276,-0.445102,-0.717937,0.549468,0.510447,0.838806,1.074845,0.222973,0.774336,1.025493,0.722792,1.553652,1.132325,1.025575,0.470846,0.057078,-0.254638,-0.514355,-0.543271,-0.282585,0.415503,0.475131,0.015963,0.472060,1.252819,0.141708,0.701941,0.714035,0.547310,1.728402,-0.007140,0.887257,-0.115616,-0.053186,0.143959,-1.245397,0.460384,-0.135345,0.057728,0.667826,1.174452,1.800687,-0.629277,0.685577,0.370651,0.964457,1.367711,0.106478,0.050798,-1.274739,-0.769100,-0.675491,-0.676518,0.485537,-0.510044,-3.219695,-5.419253,-2.103487,2.427079,1.211484,1.344336,1.421146,1.008279,0.908945,0.193966,0.160283,0.082810,-1.175872,-1.187387,-0.668074,-0.691458,-0.330182,0.610010,0.566241,1.158188,0.521563,0.564006,1.080512,0.272127,0.755245,0.807911,0.736473,0.094831,-0.197274,-0.150593,-0.379398,-0.756166,-0.810772,-0.625124,-0.371385,0.235343,1.118927,0.675400,-0.141634,0.257691,0.893946,0.384777,0.265685,0.465280,0.281465,-0.540015,-0.996397,-1.342024,-1.424344,-1.485416,-1.064570,-0.789422,-0.564646,-0.071855,0.258263,0.949264,1.245646,0.498846,1.045617,1.092026,1.586613,1.009146,0.136664,1.689191,1.066498,0.697295,0.000000,1.000000
1.619870,1.462507,1.125588,1.151235,1.330843,1.696391,1.266514,0.832460,0.791186,0.149842,-0.196310,-0.007876,0.200850,-1.084317,-0.255942,0.152060,0.252929,0.745987,0.368688,1.401140,1.332586,1.288132,0.969513,0.127642,0.810703,0.540803,0.681296,0.636916,-0.151197,-0.184774,-0.878209,-1.223256,-0.112394,-1.139718,-1.008653,-0.725854,-0.108569,0.436648,-0.460277,-0.708045,-0.244746,-0.755341,-0.791429,-0.810881,-0.768004,-0.702117,0.327500,-0.885030,-0.824386,-1.135181,-1.707155,-1.003478,-1.434479,-0.276247,0.286556,-0.306519,0.628658,-0.266387,0.133652,1.009696,-0.111363,0.414316,0.427459,0.572109,1.196801,0.285228,1.174773,0.427042,-0.722372,0.559133,-0.334806,-0.558039,-0.566770,-0.989534,0.764259,0.453181,1.618611,0.467028,-0.410038,1.031992,0.480951,1.048134,-0.193899,-0.159917,1.197857,0.676090,0.520218,-0.587627,-1.021591,-0.113719,-0.444297,-0.202006,-0.829282,-0.867126,0.039673,0.246118,0.871008,0.858778,0.368153,0.479282,1.511081,2.268698,0.653922,-0.329675,0.310499,-0.277850,-0.029743,-1.250871,-0.414534,-0.864606,-1.459672,-1.105155,-1.451600,0.321245,0.068776,0.238806,0.605749,-0.930533,0.032387,0.661915,0.197495,1.275830,-0.087211,1.539274,-0.342465,-4.414562,-4.312020,-2.675564,0.679144,-0.205252,-0.962746,0.171718,-1.067085,0.785437,0.784718,0.576257,1.153262,-0.170540,1.779929,0.912539,-0.003514,1.235178,-0.323199,0.833051,1.050832,0.313008,0.614000,-1.642066,-0.801002,-0.405598,-1.136559,0.094638,-0.307913,-0.053644,1.210333,0.244828,0.778150,-0.452459,0.509478,0.970846,-0.195922,1.014308,-0.019217,0.245827,0.713753,-0.689190,-1.102376,-2.052756,-1.909404,-1.546942,-1.975843,-1.593413,-1.116114,-1.156636,-0.485664,-0.224521,0.000264,0.400138,0.163854,0.552377,0.321842,-0.005030,0.631492,1.248509,0.207851,0.000000,0.000000,1.000000
1.134322,2.278567,1.755680,1.121516,1.796653,0.617007,0.605243,0.508359,-0.006216,0.574423,0.211713,1.043337,1.247917,1.021852,1.777028,1.151840,1.343566,1.387014,1.160517,1.974774,0.817522,1.460312,1.283769,0.844096,1.008681,0.316598,0.831269,0.486839,0.382969,0.987713,0.708753,1.383939,1.276704,0.990717,1.493675,0.715960,0.663603,0.644542,0.611397,1.014735,0.413764,0.829328,-0.019064,-0.294548,0.085974,-0.439231,0.367743,0.324084,0.378296,1.101510,0.421976,0.791227,0.871102,0.814345,1.167134,0.815995,1.203884,0.933521,1.134465,1.276271,0.692122,0.752449,0.274593,0.483047,0.431108,0.524973,0.542909,0.537635,0.968605,1.194787,1.020295,0.815147,1.103537,1.014193,0.996526,0.910827,0.724174,1.111927,0.458011,0.214055,0.184185,-0.115221,0.037293,0.071459,0.065766,0.263811,0.527315,0.443962,0.428774,0.476437,0.693174,0.692593,0.458289,0.574868,0.414669,0.263879,0.509075,0.099607,-0.073473,-0.122438,-0.497538,-0.752782,-0.406872,-0.226787,0.010957,0.063455,-0.130069,-0.068477,-0.063504,-0.106287,0.099161,-0.138592,-0.025713,-0.397680,-0.084447,-0.082691,-1.220937,-0.956583,-1.051310,-0.757897,-1.293356,-3.507702,-3.644545,-2.013486,0.305615,-0.034140,-0.367575,0.237977,-0.691158,-0.026476,-0.352867,-0.767348,-0.045031,-0.800082,-0.502080,-1.210533,-1.372202,-0.736093,-1.302560,-0.748244,-1.409672,-0.846468,-0.457567,-0.940590,-0.116872,-1.076431,-0.702928,-1.085867,-1.064086,-0.531198,-1.380331,-0.815375,-1.665857,-1.812344,-1.511110,-1.624836,-1.525817,-1.708974,-1.016604,-0.842015,-1.410479,-1.228655,-1.400862,-1.412349,-1.069507,-1.062017,-1.276565,-0.935089,-1.192708,-1.686494,-1.155363,-1.594945,-1.464912,-1.900607,-1.093345,-0.874856,-0.917685,-0.048131,-1.071276,0.078467,-0.467320,-0.302285,-0.572260,-0.463298,0.250080,-0.594486,-0.803263,1.000000
0.979164,0.886881,1.377957,1.049893,0.470773,1.573507,-0.068523,1.087244,0.598501,0.282627,0.244750,-1.082775,0.100485,-0.375222,-0.174256,-0.193458,-0.750068,0.925430,-0.180740,0.897957,0.332252,-0.192204,0.247648,-0.738091,0.643337,-0.479917,-0.198329,-0.510602,-1.676730,-0.925884,-1.173270,-0.932916,-1.265402,-0.639238,0.216331,-0.610173,-0.667727,-0.611057,-0.934846,-0.397384,-0.225087,-0.530417,-0.307795,-0.119995,-1.268053,-0.526915,-0.897685,-0.957607,-1.355926,-0.876724,0.290915,-0.429820,1.321930,-0.114131,1.011325,1.042580,0.586817,0.825215,0.234341,1.824333,0.601942,0.259402,0.306607,-0.766253,0.040030,-0.874775,-0.088839,0.251644,-0.029533,1.401957,0.455600,1.222038,0.703510,0.545446,1.345934,1.125806,1.426679,0.761464,0.919241,0.423214,0.306376,0.081595,-0.224510,-0.292438,-0.335595,0.526937,0.025171,0.941604,0.536801,1.198840,1.322490,0.917148,1.632016,0.781262,1.644841,0.573017,0.268417,-0.243899,-1.221596,-0.108288,-1.123233,-0.053063,0.352197,0.284714,1.066116,0.247453,0.917404,0.384435,0.962467,1.239776,0.408220,1.015735,1.350216,1.496313,0.488145,-0.975582,-3.841986,-4.930766,-1.477427,0.907810,1.188145,1.034536,1.221929,0.978192,0.534217,0.855066,1.077525,1.081934,1.167308,1.484193,0.351749,0.130026,0.367544,-0.344959,-0.250542,-0.460810,-0.766954,-0.266140,-0.423569,0.555289,0.300653,-0.263481,0.217778,-0.302501,0.554065,-0.036387,0.488198,0.316321,-0.568068,0.537517,-1.330304,-1.020603,-0.953037,-1.872996,-1.058280,-1.929646,-1.125612,-0.459429,-1.194806,-0.277108,-1.824855,-0.686597,-1.419110,-1.085025,0.476211,-0.595438,-0.032458,-1.132656,-1.345681,-1.060882,-2.026265,-0.513784,-1.262223,-0.038185,-0.733480,0.000000,0.000000,0.000000,0.000000,0.000000,0.000000,0.000000,0.000000,0.000000,0.000000,0.000000,0.000000,1.000000
0.443153,1.620228,0.806762,0.331794,0.860235,-0.770546,-0.334854,-1.193731,-0.828936,-0.470791,-1.325061,0.239269,-0.721981,0.478289,-0.009188,-0.283175,0.860794,-0.203029,0.886899,0.652069,-0.498150,0.946548,-0.390734,-0.670722,-0.886978,-1.761042,-0.610487,-1.488982,-0.955220,-0.038311,-0.564774,0.490168,-0.882531,-0.239107,-0.091631,-0.862721,0.536533,-0.883679,-0.454473,-0.457665,-1.971483,-1.287355,-2.816323,-2.264558,-1.700719,-2.713316,-1.242455,-1.464282,-0.738130,-0.001048,-0.573781,0.408698,-0.442173,0.124096,0.913244,-0.345209,1.234059,0.367372,0.421027,0.669138,-0.891977,-0.500932,-0.999153,-0.470823,0.010247,-0.741943,0.053714,-0.491400,-0.115367,0.846613,0.146010,0.702529,0.629569,0.344477,0.918936,0.474691,0.581641,0.554587,-0.359635,-0.161565,-0.601874,-0.603996,-0.478122,-0.564031,0.189010,0.384478,0.714919,0.880670,0.736129,0.674575,0.756880,1.009776,0.780138,1.168756,0.474588,0.794128,0.392503,-0.405565,0.282177,-0.420506,-0.207417,0.143104,-0.514850,0.551068,0.252913,1.196367,1.173360,0.331973,1.184949,0.535334,0.744167,0.969442,-0.000304,0.858711,0.137782,-0.537445,-0.359999,-0.857947,-0.345428,-0.482677,-0.276913,0.524192,0.744064,0.971227,1.115669,1.176467,-1.128449,-5.195961,-4.552896,-0.558956,0.578406,0.554782,-0.021498,-0.576436,-0.267138,-0.897599,-0.797848,-0.409515,-0.134686,0.938388,0.451212,0.975432,0.650460,0.363429,0.931196,0.838821,0.864178,1.116990,1.001924,1.339893,0.059369,-0.079498,-0.433516,-0.425700,0.003325,-0.313781,0.923856,0.489884,0.566147,1.204292,0.356184,1.354375,0.259845,0.625197,1.119832,-0.057370,1.302201,-0.022142,-0.590527,-0.828456,-1.791636,-0.494035,-1.648778,-0.606652,-0.024961,-0.007829,0.878505,0.233731,1.143559,1.319279,0.857317,2.297497,0.671634,1.575572,0.961741,-0.495684,-0.020614,1.000000
0.429072,0.674061,-0.030583,0.670917,0.216330,0.399691,0.317241,0.504880,1.038330,0.280408,0.739788,0.286204,0.494848,0.913828,0.417212,0.608675,0.268154,0.153072,0.051368,-0.191142,0.267659,-0.074579,0.313415,0.665400,0.672620,1.268518,0.906201,0.876239,0.585321,0.684088,1.226823,1.036475,0.606897,1.139266,0.370873,0.039142,-0.193987,-0.251262,0.272189,-0.166222,1.272654,1.008949,0.698738,1.133673,0.541601,1.347268,0.915557,0.767206,0.934781,0.324808,0.427229,0.070166,-0.080431,0.038360,-0.983518,-0.216554,-0.621752,-0.590602,0.049471,0.136905,0.586237,-0.101842,0.841643,0.956233,0.784361,0.648172,-3.056422,-5.736446,-3.679185,-1.964294,-1.054450,-1.041172,-0.273439,-0.505077,-0.230044,0.550077,0.395951,0.402245,0.182293,0.261768,0.792855,0.193120,0.678910,0.622828,0.497154,0.634470,-0.173176,0.170969,-0.237759,-0.502354,-0.108834,-0.394700,0.725645,0.455838,0.722314,0.738437,0.152282,0.725783,0.627733,0.695312,0.706521,0.010252,0.470825,-0.431699,-0.962277,-0.809285,-1.473160,-0.939829,-1.379700,-1.164736,-0.852982,-1.294629,-0.960974,-1.564636,-1.225185,-0.765865,-1.178736,-0.721648,-0.220028,-0.090179,-0.045952,-0.944386,-0.826489,-1.715278,-1.179238,-1.086085,0.000000,0.000000,0.000000,0.000000,0.000000,0.000000,0.000000,0.000000,0.000000,0.000000,0.000000,0.000000,0.000000,0.000000,0.000000,0.000000,0.000000,0.000000,0.000000,0.000000,0.000000,0.000000,0.000000,0.000000,0.000000,0.000000,0.000000,0.000000,0.000000,0.000000,0.000000,0.000000,0.000000,0.000000,0.000000,0.000000,0.000000,0.000000,0.000000,0.000000,0.000000,0.000000,0.000000,0.000000,0.000000,0.000000,0.000000,0.000000,0.000000,0.000000,0.000000,0.000000,0.000000,0.000000,0.000000,0.000000,0.000000,0.000000,0.000000,0.000000,0.000000,1.000000
0.594864,1.002157,-0.934070,-0.916683,-2.534503,-4.043951,-3.218220,-0.614166,0.223075,-0.593501,0.308843,0.337249,-0.753047,0.226672,-0.638579,0.408511,0.952679,0.004222,0.351825,1.161921,0.413037,-1.405880,-0.356760,-0.184681,-1.440382,-1.092458,0.265114,0.078939,-0.143577,-0.777340,-0.054064,-0.028610,0.459507,-0.076021,-0.339608,0.261256,-0.072295,0.316212,-0.786417,-1.611425,-1.618627,-1.638686,-1.003655,-1.027586,-0.688058,-0.633481,-0.283268,-0.597416,-0.394934,0.013658,-0.394877,-0.898081,-0.393836,0.223136,1.076037,-0.076732,0.014913,0.531795,0.488412,0.291394,-0.574028,0.617439,0.546321,-0.318021,0.863010,0.454041,0.238529,0.585481,1.263864,1.363615,-0.017621,1.507677,1.710259,0.691592,-0.378111,-0.830552,0.410804,-0.396710,0.126979,0.259153,0.260116,0.352405,0.131149,1.638898,0.242341,1.155026,1.351693,-0.008945,0.861307,1.301375,0.354047,-0.560492,0.159784,1.022991,-0.645706,0.571824,1.110632,0.711474,0.368519,0.343248,0.725777,2.130342,1.538844,0.165375,0.229955,0.538459,0.580733,-0.189874,-0.530913,0.145321,-0.344769,-0.039482,-0.165267,0.416039,0.625564,0.928360,0.851273,0.025873,1.470529,1.010826,1.309020,1.664456,0.619937,-0.298456,-5.008026,-5.003359,-0.936515,-0.605621,0.070504,0.258228,0.076543,0.312632,-0.151050,0.555496,0.321292,1.475976,0.754278,-0.223330,0.717951,0.485430,1.357245,0.701417,-0.266614,0.148639,-0.280281,-0.112734,0.511906,-0.292267,0.416979,-0.367960,0.168894,0.084411,0.160068,1.331446,-0.560951,0.110642,0.673110,0.135546,0.278167,0.170283,-0.328184,-0.448352,-0.457015,-0.186045,-2.041716,-0.919786,-0.316051,-1.372440,-0.370580,-0.258104,0.071062,-0.815347,-1.273304,-0.172148,0.550989,0.754363,0.272364,-0.104526,0.589277,-0.185021,-0.029591,-0.323569,-0.212003,0.114069,0.000000,0.000000,0.000000,1.000000
0.519680,0.789967,-3.154650,-5.435685,-1.459126,-0.146791,0.092107,0.733688,0.332027,0.720950,0.213879,0.724912,0.715541,1.384067,1.642102,0.036781,0.929568,0.814740,1.449259,1.411140,0.178667,0.372178,0.286714,-0.019134,0.902019,0.157771,0.590091,0.271950,0.175156,0.712914,0.136063,1.696003,0.229487,0.050427,1.081259,0.558579,0.553058,0.620561,0.102088,-0.042333,-0.198247,0.289277,-1.242564,-1.139067,0.295763,-0.990796,-0.214811,0.076167,0.387383,-0.155061,-0.973085,-0.108075,0.800232,1.059784,0.813118,0.170646,0.860605,0.369321,0.187092,0.214569,-0.069054,0.592920,0.206885,-0.142678,0.424302,0.785734,1.703658,0.809112,0.730077,1.270463,0.726167,0.584979,2.006389,1.471781,0.069929,0.441400,0.768136,-0.318014,0.034414,0.025549,-0.554309,0.459167,0.292838,0.437843,0.738157,0.280702,0.639936,0.220117,0.556434,0.215522,1.031425,1.069283,0.519272,0.519220,0.133917,-0.515921,-0.038232,0.206708,-0.328665,0.116363,-0.084927,0.384854,0.550958,0.607351,0.968321,-0.426017,-0.003352,-0.152543,0.073125,0.292872,-0.407545,-0.125653,-0.290495,-0.756398,-0.783082,-0.939038,-0.205095,0.032528,-0.298631,0.141892,0.244802,0.799528,0.513203,0.952609,-0.639196,-3.447030,-4.688082,-1.729058,0.817487,0.346739,-0.094178,-0.286485,-0.285799,-0.440228,-0.145158,0.061898,0.577856,-0.009746,0.646876,0.210326,0.310679,0.268235,0.371977,1.415286,0.469692,0.356675,0.764187,0.188779,0.223826,-0.534296,-0.892204,-0.807407,-1.026197,0.122677,0.383562,-0.123843,-0.289179,-0.549374,1.040699,0.412405,-0.521420,0.041593,0.332624,-0.142678,0.194216,-0.431681,-1.299018,-1.788337,-1.363855,-2.213806,-2.257126,-1.832621,-2.300240,-1.761582,-1.425935,-1.029826,-0.987373,-0.891345,-0.642166,-0.814891,-0.787784,-0.228039,-0.585263,-0.238388,-0.668582,0.000000,0.000000,1.000000
0.480866,1.113708,1.066317,0.007602,0.785415,0.614459,0.902294,0.854788,-0.286574,-0.049467,-0.819071,-0.742089,-0.155657,-0.696578,-0.214936,-0.626417,0.011667,0.388836,-0.028101,0.727614,0.609450,0.935551,0.973250,0.220400,1.047072,0.544509,0.479671,0.306073,-1.183870,-0.486724,0.022748,-0.727721,0.004664,-0.967443,0.443582,-0.007728,-0.791789,-0.363667,-0.711646,-0.044610,-0.834877,-0.503125,-0.318017,-0.721159,-0.027751,-1.002617,-1.163250,-0.757550,-1.238294,-0.192699,-0.585918,-0.164153,0.696994,0.037568,1.421148,0.763487,0.819913,1.388835,0.225170,1.573414,0.954458,0.807422,1.256126,0.191483,0.090084,-0.545571,-0.899127,0.131295,-0.616594,-0.014493,0.125293,0.321176,0.952187,0.211248,0.502255,0.324258,0.705536,0.785214,0.333444,0.794318,0.565842,0.182761,0.019617,-1.470904,-1.196303,-0.817007,-0.277303,-0.333561,-0.496683,0.480347,0.208835,0.888640,0.485694,-0.573565,0.792741,0.548610,1.080268,0.767628,-0.332377,0.137167,-0.795252,-0.784123,-0.975297,-1.410750,-0.877072,-1.207231,-0.093360,0.026334,-0.562861,0.366401,0.080608,0.897470,0.371323,-0.422756,0.898511,0.274061,1.229574,-0.135316,-4.758105,-6.544185,-3.928223,-0.122235,-0.346386,-0.823828,0.112091,-0.107133,0.503420,0.501591,-0.059541,0.969514,0.709353,1.149554,0.796082,0.368607,1.716262,0.699746,1.106983,0.496633,-0.427333,0.505638,-1.022549,-0.108153,0.164218,-0.337659,0.342217,0.403593,1.214320,0.127589,0.152058,1.648610,0.922963,0.749337,0.443509,0.280737,0.790387,-0.877016,-0.529340,-1.529131,-1.171521,-0.820912,-1.686250,-0.219642,-0.555868,-1.200859,-0.273107,-0.603937,0.303902,-0.256838,0.816100,1.539852,0.474699,0.936993,0.366015,-0.040196,0.443700,-0.313585,0.193302,-0.290332,0.000000,0.000000,0.000000,0.000000,0.000000,0.000000,0.000000,0.000000,0.000000,1.000000
0.448531,0.059945,-3.569863,-5.939631,-4.587307,-1.143800,-0.467845,-1.283674,-0.504378,-0.514701,-0.264260,0.105476,-0.559107,0.123712,0.244268,0.275073,0.478295,-0.347481,0.794134,0.393300,0.203532,0.352374,-0.911947,-0.107052,-0.952403,-1.040533,-0.111194,-0.852471,-0.259979,-0.259970,0.429067,0.012122,-0.634980,0.627026,0.625386,0.025752,0.152413,-0.454387,0.319087,-0.853162,-1.062838,-1.367544,-1.815452,-0.991909,-1.822596,-1.158566,-0.539018,-1.585213,-0.845451,-0.956595,-0.476893,-0.448464,-0.382773,0.918821,0.137483,0.111117,0.170270,-0.594409,-0.127597,-0.539414,-0.537553,-0.440144,-0.757607,0.320663,-0.384349,0.596484,0.530682,0.202716,0.986310,0.287160,0.739436,0.581079,0.115810,0.457416,0.384192,-0.293316,-0.651126,-0.779958,-0.329469,-0.539576,-0.269133,-0.061921,0.329072,0.684860,0.205447,0.150439,0.313467,0.256053,0.424451,0.711288,1.348622,0.913875,-0.101249,-0.245148,-0.484862,-0.608147,-0.271264,-0.745183,0.287546,-0.093262,-0.053105,0.191994,-0.094594,0.468291,0.089381,0.074905,1.010283,0.453074,1.025101,0.409684,-0.314494,0.060534,-0.883837,0.242473,-0.127144,0.246054,0.073345,-2.810350,-3.280724,-1.116703,1.807647,1.583099,0.694739,1.543873,0.683441,1.467929,1.829760,0.238855,0.167179,-0.165121,0.181214,0.471707,0.218338,0.672412,0.638869,1.168470,0.731026,0.795370,1.418134,1.102505,1.312832,1.211071,0.712236,1.373817,0.387099,0.018464,-0.379645,-0.135806,0.210469,-0.625455,0.362676,0.536339,0.084109,0.825870,0.354025,0.527863,-0.267280,-0.039063,0.623852,-0.444201,0.209022,0.656868,-0.124887,-0.319087,-0.864480,-0.659282,-0.336536,-0.375273,-0.192074,0.212177,1.211475,0.993085,0.956569,1.250832,1.074829,1.098002,0.764740,1.071425,1.314777,1.055812,0.879687,0.472500,0.180807,0.000000,0.000000,0.000000,0.000000,1.000000
0.994411,-0.414888,0.239466,-0.025522,-0.270647,1.143747,-0.408834,-1.194386,-1.255471,-1.429764,-0.646492,-1.077307,-0.632569,-0.587841,-0.123343,-0.139851,-0.592657,0.200575,0.187470,0.014404,0.392644,-0.476711,0.144881,-0.297555,-1.272903,-1.477672,-1.775668,-0.927188,-1.791335,-1.459436,-0.403120,-1.257737,-0.522656,-0.656593,-0.777393,-1.140602,-1.770271,-0.513396,-1.438779,-1.539878,-0.429284,-1.169681,-1.593039,-2.072302,-2.284325,-1.698016,-1.761457,-1.566338,-1.322610,-0.196482,0.094554,-0.319195,0.161548,-0.011621,0.031850,-0.302752,-0.231818,0.233762,0.060167,-0.222328,-0.508250,-1.125948,-0.601016,-0.797794,-1.146198,-0.392708,-0.471357,0.254600,-0.093172,-0.114603,0.754816,-0.144611,0.070987,0.390086,0.034793,0.870407,0.276209,0.063445,-0.761491,-0.810557,-0.196169,-0.731328,-0.166136,-0.538001,0.022615,1.097808,0.270512,0.791232,0.984775,0.999283,1.147015,0.546082,1.059372,0.424432,0.313803,0.910465,-0.796716,-0.252992,-0.825653,-0.314316,-0.108159,-0.514013,1.007466,0.012941,0.376949,1.175940,0.108700,0.794326,1.180008,1.265217,1.375802,-0.172973,-2.406553,-4.320065,-1.230810,1.112468,-0.194841,0.904649,0.019092,0.237891,0.853768,0.060778,1.723724,1.114266,1.060577,1.525444,1.043698,1.728913,1.309689,1.230104,1.437973,0.593763,1.038358,0.566012,0.146076,0.236068,-0.094536,0.300887,0.248025,0.713796,1.264429,0.495116,1.395176,0.758115,1.109627,0.729796,0.345622,0.977807,0.636833,0.894428,0.604500,-0.750318,-0.358571,-0.508039,-0.584981,-0.175302,-0.716672,0.539366,0.081063,0.180532,0.616418,0.769618,1.765642,1.774006,1.922023,1.948487,1.381308,1.837942,0.793420,0.744356,0.815532,0.337815,0.000000,0.000000,0.000000,0.000000,0.000000,0.000000,0.000000,0.000000,0.000000,0.000000,0.000000,0.000000,0.000000,0.000000,0.000000,1.000000
0.258631,0.320301,-1.817819,-3.805580,-2.766823,0.674772,-0.255100,0.181184,0.195724,-0.470998,0.612007,-0.227377,0.750977,1.130225,0.407524,1.126742,0.684062,1.036809,1.142522,0.660610,1.101790,0.433885,0.449537,0.516426,-0.152124,-0.038048,-0.295834,-0.193259,0.043660,0.008317,0.899871,0.278378,0.654605,0.725076,0.409757,0.739561,-0.092684,0.481478,0.396058,0.367299,0.533640,-0.524641,-0.921487,-0.460000,-1.017654,-0.362853,-0.905620,-0.254509,0.132529,-0.362552,0.227728,0.229112,0.930754,1.404244,1.257375,1.598337,1.040882,1.216303,0.952709,0.151653,0.630528,0.021517,0.430352,0.537721,0.515270,1.177996,0.798308,1.283819,1.271352,1.261312,1.879850,0.975822,1.762202,1.663821,1.242945,1.916016,0.547825,0.489828,0.389976,0.058337,0.782767,0.003898,0.775537,0.705013,0.809848,1.202878,0.856304,1.024606,0.682936,0.975081,1.736596,0.488091,1.259361,1.236417,0.553929,0.231564,-0.275008,0.010258,0.135672,-0.186945,0.389985,-0.174784,0.663230,0.309276,0.183246,0.536127,0.052809,0.618416,0.920523,0.728718,0.822443,-0.541439,-0.333109,-0.466769,-0.539440,-0.070224,-0.740807,-0.400921,-2.965505,-4.841327,-1.520479,0.533989,0.778990,0.860983,-0.102714,0.433027,-0.053421,0.461386,0.267687,-1.044131,-0.566069,-0.856958,-0.785712,-0.725518,-0.735522,0.148601,-0.188571,0.165669,-0.072045,-0.371779,0.541478,-0.464509,0.208959,0.041710,-0.060949,0.067839,-0.937906,-0.681937,-1.097097,-1.567301,-1.107147,-1.747681,-0.740197,-1.026830,-0.854873,-0.802828,-1.392544,-0.745977,-1.025680,-1.281655,-0.817011,-1.293047,-1.001338,-1.124841,-1.755335,-1.865009,-1.855760,-1.263348,-1.120729,-1.415032,-0.487671,-0.742698,0.023787,-0.300953,-0.900941,0.095964,-0.288399,0.230527,0.130149,-0.450426,-0.141061,-0.831319,-0.850317,-1.379613,0.000000,0.000000,0.000000,1.000000
1.276239,2.611090,1.256754,1.341309,1.400012,1.130333,1.996790,0.253669,-0.028029,0.307584,-0.165210,0.282588,-0.079065,0.833576,1.173995,0.877554,1.480501,0.374256,1.502093,1.108406,0.698818,1.571965,0.777352,1.374324,0.404948,-0.117642,0.199008,-0.976072,-0.448899,-0.885584,-0.633710,0.238524,-0.449734,0.349847,-0.587997,-0.293952,0.117757,-0.616456,-0.192631,-0.223271,-0.580944,-0.042611,-0.915469,-1.271667,-1.408934,-0.991568,-0.255529,-0.737031,-0.150800,0.441695,0.355820,1.405133,-0.167799,0.731659,1.001233,0.905200,1.585585,0.713534,0.723550,0.578370,-0.194735,-0.137559,-0.871792,-0.299792,-0.517002,-0.882873,0.216583,-0.269542,0.651990,0.090799,-0.162768,1.201706,-0.107171,1.507289,0.733720,0.112623,0.876480,-0.132239,-0.164779,-0.835269,-1.349095,-0.190119,-1.336571,0.125811,0.073316,-0.336399,0.475220,0.176483,0.901933,0.419774,-0.471950,0.658393,-0.424016,0.345854,0.454225,-0.032267,-0.498297,-1.242898,-0.440261,-0.592171,-1.793105,-0.642280,-0.622448,-0.062964,0.040222,0.277147,1.330814,0.385021,0.000184,-2.378596,-4.590283,-0.835614,1.873247,1.689590,-0.438649,-0.757274,-0.294908,-1.402637,-0.163964,-0.513588,-0.195622,1.058682,-0.156897,0.072796,0.770500,0.187038,1.192946,0.547300,1.276476,0.653966,0.398071,-0.355519,-1.429379,0.035612,-0.551363,-1.221619,-0.099112,0.066098,0.148589,0.322397,0.305536,0.651643,-0.230604,0.585160,-0.137833,-0.955118,0.446501,-1.047101,-1.453283,-2.089703,-2.745517,-1.883684,-2.847672,-2.289384,-1.295793,-1.155137,-0.019580,-0.312263,-0.207065,0.308903,0.131670,1.039375,0.461849,1.636858,1.192652,-0.425240,-0.362740,-0.974226,-0.204564,-0.469561,-0.941882,0.558579,0.642185,1.033952,0.539113,0.000000,0.000000,0.000000,0.000000,0.000000,0.000000,0.000000,0.000000,0.000000,0.000000,0.000000,0.000000,1.000000
1.052934,0.943718,0.645165,1.057060,0.981283,0.954900,0.463937,0.364497,0.204087,-0.307698,-0.092227,-0.377778,0.052569,0.194178,0.157434,0.921649,0.688508,0.598593,0.958116,0.403776,1.185729,0.990861,1.205270,1.367210,0.746072,1.071281,0.448658,0.375586,-0.115568,-0.470501,0.241916,-0.140088,-0.254923,0.002022,-0.346842,0.254656,-0.157262,0.229673,0.158787,-0.564359,0.519416,-0.517539,-0.618710,0.053256,-0.372801,-0.481849,-1.264695,-0.665257,-0.579537,-0.951959,-0.045528,-0.162271,0.077053,0.350097,-0.047107,0.875113,0.628127,0.642602,1.271244,0.514839,0.798324,0.698507,0.617951,0.786282,0.084807,0.272332,-0.217150,-0.400989,-0.425117,-0.889316,0.189980,-0.074572,-0.308239,-0.145609,-0.090525,0.475029,-0.479143,-0.048269,0.437455,0.018087,0.794093,0.385604,0.137340,-0.274859,-0.454881,-0.445460,-0.505743,-0.044407,-0.262843,-0.289040,0.792454,0.710821,0.703027,0.469671,0.025504,0.711523,0.402417,1.038126,0.908494,0.393407,1.181276,0.748815,-0.144825,-0.613838,-0.774721,-0.597979,-0.081289,0.269462,0.015234,-0.302329,0.016634,0.130768,0.521158,0.137751,0.150628,1.079407,0.593579,0.110348,0.948340,0.830060,1.130587,-1.100132,-3.542339,-4.667469,-2.472193,0.526492,0.288150,0.338425,0.521894,0.179296,0.479780,0.359132,0.905367,1.200369,0.605996,0.582614,0.443449,1.401793,1.540147,0.207045,-0.250511,0.443408,0.825474,0.060682,-0.416224,-0.069571,-0.080965,0.370112,0.064791,-0.149082,-0.005389,-0.811244,-0.061370,0.274713,0.142041,0.316029,-1.069992,-0.704153,-0.428537,-1.094632,-1.378478,-2.036401,-1.357711,-0.983352,-1.797474,-2.056177,-3.345769,-3.636914,-4.730661,-3.026561,-1.286459,-1.521148,-0.064737,0.673458,0.163410,0.925983,0.776436,0.657324,0.511173,0.548423,0.498038,0.152687,0.000000,0.000000,0.000000,0.000000,0.000000,1.000000
0.244838,-1.302043,-2.209797,-1.534390,-1.327915,-1.583260,-1.396018,-1.099450,-0.053985,-0.698856,-0.151366,0.332236,-0.168399,0.281945,-0.360059,-0.308119,-0.002451,-0.737753,-0.403086,-1.555736,-1.969656,-1.361084,-1.822152,-1.021547,-1.735640,-0.907485,-0.868200,-0.968043,-0.002165,-0.539606,0.076114,0.594547,-0.844421,0.018851,-1.076046,-0.769248,-1.472794,-2.502795,-2.192133,-2.346072,-1.646284,-2.300248,-2.241225,-0.107413,-0.811257,-1.000565,-0.394494,-0.519756,0.536339,-0.144165,0.169641,0.488046,-0.176329,-0.031630,-1.201104,-0.961069,-0.219127,-0.483791,0.364133,0.423085,0.368248,1.001069,0.348657,1.003315,1.141801,1.134666,1.350986,0.836923,1.697850,0.788353,-0.118811,0.517468,0.168890,0.117303,-0.257572,0.038221,0.388653,-0.022797,0.371303,0.375705,0.622122,1.379744,0.155038,0.583235,0.563797,0.180526,0.109340,-0.572718,-0.323900,-0.904097,-0.326372,-0.004066,-0.407554,0.987394,1.006759,0.765228,0.692859,0.183060,0.506868,0.493111,0.997550,0.956214,0.230089,0.751728,0.523448,-0.704731,-0.392258,-1.532527,-0.425676,-0.605688,0.003722,0.797204,0.210955,0.760641,-0.972738,-3.554195,-3.135150,0.416492,1.681179,1.609615,1.610542,0.890141,-0.093444,0.433682,-0.285405,-0.130249,-0.096245,0.042246,1.313015,0.684309,1.134603,1.013819,0.980690,1.886346,1.030794,1.411919,1.650886,0.803357,1.104019,0.280649,0.160617,0.587105,0.034867,0.262357,0.364238,0.941396,1.062893,0.496102,0.563337,0.415899,0.817784,-0.210451,0.344358,1.411598,0.633142,-0.129604,-0.537911,-0.876420,-0.785532,-1.148724,-0.350044,0.107066,0.066642,1.101596,0.629083,1.051611,1.218135,0.477036,1.504731,0.886200,1.103715,1.104031,0.476857,0.280670,-0.421785,0.201992,0.127592,-0.510019,0.776733,0.606058,0.933350,0.000000,0.000000,0.000000,0.000000,0.000000,0.000000,1.000000
0.462127,1.567246,0.886144,-0.191701,-0.283069,-0.204342,-0.949344,-0.246111,-0.822753,0.714641,0.582523,0.501499,0.890608,0.425300,1.365335,1.162242,0.639557,1.602485,0.595768,0.706853,0.282782,-0.406385,0.157130,-0.156666,-0.347681,0.006917,0.224862,0.932434,0.166507,0.248361,-0.061619,0.458499,-0.264629,-0.541171,0.918042,0.677599,-0.410628,-0.814326,-1.358804,-1.239402,-1.603831,-1.200935,-0.283790,-0.492211,0.468152,0.546496,0.319293,1.166599,0.056450,0.957940,0.811829,0.544372,0.943850,0.205221,-0.006273,-0.713043,-0.540822,0.009037,-1.055441,0.069305,0.395801,0.331140,0.851347,0.310985,1.055479,0.507464,0.539392,1.183927,0.310679,0.971124,0.504726,-0.277729,-0.607851,-1.505401,-0.685722,0.368040,0.750938,1.325506,0.314559,1.416411,1.007356,0.933470,1.291225,0.722601,1.605443,1.065520,0.609052,1.210409,0.418636,0.326910,-0.361901,-0.000196,0.059785,-0.542318,0.740919,0.466057,0.478792,0.680547,0.101544,1.062614,0.387000,1.021965,0.993083,0.513970,1.244085,0.514331,0.343699,-0.377373,-0.786510,-0.146007,-0.568869,-0.583752,0.624479,0.401335,0.498754,-2.853931,-5.276342,-2.225150,0.844865,1.331756,0.761339,1.175335,0.990663,0.070436,0.395270,-0.169684,-0.274042,-0.396056,-0.682421,0.451533,-0.400074,0.497413,0.354586,0.400197,0.995280,0.369729,0.977677,0.795307,0.365403,0.893272,0.322204,0.607671,-0.275197,-0.965283,-0.367278,-0.868083,-0.578020,-0.294254,-0.103162,0.683358,-0.379675,0.439303,-0.102782,-0.802306,-0.042626,-0.603355,-0.335917,-0.630797,-1.668826,-1.944681,-3.499246,-3.012347,-2.151402,-1.881502,-1.322428,-1.297272,-0.791242,-1.194434,-1.414541,-1.218664,-1.972417,-0.761296,-0.384589,-0.615817,0.488972,-0.264120,0.221041,-0.098035,-0.752282,-0.319959,-1.337575,0.000000,0.000000,0.000000,0.000000,0.000000,0.000000,1.000000
1.109273,0.492227,0.684933,0.826303,-0.037763,-0.011142,-0.147352,-0.638010,-0.390424,-1.050885,0.057842,-0.437110,-0.117665,0.285210,-0.095372,0.669343,0.182560,0.424501,0.678261,0.026057,0.520987,0.169232,0.205727,-0.122325,-1.165167,-0.657670,-0.884581,-0.960824,-0.469294,-0.545825,0.354527,-0.370467,-0.170129,0.056328,-1.070862,-0.357915,-0.656194,-0.691218,-0.582318,-1.603742,-1.861343,-3.040882,-3.350260,-2.238572,-2.125946,-1.484287,-1.499136,-1.040623,-1.173526,-1.568619,-1.318304,-1.890620,-1.425007,-0.393868,-1.018393,0.104496,-0.329965,-0.229056,-0.111878,-0.890992,-0.616755,-1.092541,-1.446901,-1.374966,-1.835011,-1.213319,-0.613956,-0.578586,-0.961912,-2.291033,-0.134795,-0.234854,-0.313964,-1.520241,-1.808986,0.148111,-0.115063,-0.258593,-0.683440,-0.637594,0.185330,-0.251040,-0.225837,0.349859,0.032681,0.964615,0.617396,0.434274,0.331039,-0.923097,0.365366,-0.049921,0.481240,1.160934,0.641592,0.778277,-0.069224,0.468807,0.686778,0.234046,0.893311,0.511690,1.199972,1.601015,0.919413,1.493544,0.396905,1.012604,1.049213,1.021421,1.317163,0.492452,1.001005,0.558233,0.119742,0.464491,-0.391616,0.308178,0.128782,-0.456875,-1.447887,-3.707422,-1.422088,1.681773,1.554250,1.565569,0.885519,1.010755,1.372392,0.774264,1.573478,0.891865,0.606098,0.283819,0.077576,0.341396,-0.349339,0.255335,0.027023,0.111285,1.215455,0.614517,1.003484,1.107477,0.879921,1.564962,0.959025,1.452499,1.405881,1.104593,1.492571,-0.146001,0.043183,-0.103470,-0.295889,0.068858,-0.521133,0.692573,0.423415,0.099099,0.655079,-0.154739,0.684199,0.528731,0.348147,0.681540,-0.080228,0.521365,0.038645,-0.570875,-0.200099,-0.841389,0.054153,-0.591403,-0.251584,0.355038,0.227010,1.467222,0.809731,0.487701,1.229306,0.750972,1.555875,1.467553,1.235651,1.554088,0.000000,1.000000
1.060818,0.637993,1.042654,0.869321,0.381464,0.964674,0.203498,0.627526,0.740521,0.456947,0.469632,-0.551024,-0.274298,0.006981,-0.591587,-0.011124,-0.510224,0.146712,0.606773,0.505058,1.157596,0.742610,1.058948,1.129869,0.762281,1.281310,0.470131,1.077239,1.094176,0.350136,0.583007,0.064600,0.251128,0.140253,-0.357914,-0.344419,-1.229250,-0.183457,-0.102494,-0.314217,-0.023985,-0.698896,-0.211351,-0.312763,-0.727228,-0.504347,-0.540996,-0.066166,-0.224881,-0.658631,-0.396960,-0.927944,-0.649274,-0.218096,-0.373079,0.236590,0.431662,1.001012,1.716119,1.724465,1.959690,1.135393,1.298245,0.948811,0.911210,1.373166,1.065187,1.319205,0.415231,-0.135358,0.006224,-0.553756,0.137346,0.020834,0.272919,0.633808,0.233678,0.971489,0.530226,0.307966,1.093746,0.599913,1.055048,0.613063,0.557148,0.915272,0.359621,0.166917,-0.366514,-0.275175,-0.073465,-0.416511,0.546248,0.304474,0.666928,0.980148,0.513379,0.976429,0.843472,0.869062,1.315248,1.037986,1.280760,0.771180,0.318736,0.320292,-0.290309,-0.084948,-0.608354,-0.539657,-0.009274,-0.298103,0.490168,0.130561,0.013689,0.782895,-0.121100,0.664290,0.436285,0.641510,0.699883,0.843830,1.087577,0.718442,-0.429994,-2.563613,-5.431300,-3.348585,-0.472591,0.142242,0.547698,-0.086866,0.347435,0.117118,0.110130,0.456004,-0.043219,0.807061,0.139897,-0.007956,-0.012444,-0.656906,-0.877885,-1.557482,-1.552362,-1.252283,-2.172683,-2.415622,-2.337100,-2.178950,-2.191713,-2.813294,-2.059576,-2.318755,-1.919710,-1.250950,-1.016002,-0.553267,-0.691633,-0.549545,-0.616041,-1.365607,-0.587057,-1.179958,-0.999387,-0.633327,-0.990653,-0.455972,-0.340570,-0.106476,0.018797,-0.507993,0.021726,-0.483341,-0.057493,0.476778,0.230285,0.818245,0.763284,-0.137660,0.402280,-0.168956,0.306364,-0.010394,0.326417,0.000000,0.000000,1.000000
0.423365,-1.231651,-3.912941,-5.863775,-3.932857,-0.579489,-0.969633,-0.599820,0.233263,-0.467048,0.110061,-0.153308,-0.071338,0.185280,-0.203868,0.727891,-0.064211,0.348237,0.358303,-0.043561,-0.160791,-0.726053,-0.836258,-0.534648,-0.788275,-0.350496,-0.344975,0.133013,0.380153,-0.084344,0.343405,0.026979,0.493139,0.409713,0.073501,0.688574,0.090034,-0.079970,-0.078898,-0.838552,-0.669378,-1.343809,-1.093516,-1.110457,-1.299446,-0.759084,-0.927298,-0.684279,-0.635227,-1.026286,-0.340121,-0.754594,-0.226872,-0.053919,-0.012017,0.186857,-0.184361,-0.041043,-0.352440,-0.462614,0.086787,-0.436033,-0.230998,-0.028194,-0.187805,0.548349,0.230383,0.304465,0.542301,0.119840,0.916286,0.487254,0.736767,0.780480,0.406339,0.628877,-0.615407,-0.329328,-0.312631,-0.715880,-0.158907,-0.263509,0.126835,0.347447,0.035235,0.726932,0.156187,0.500064,0.788916,0.295988,0.778875,0.464089,0.726476,0.440804,-0.427422,0.066774,-0.484615,-0.194735,-0.080312,-0.231663,0.660626,0.317480,0.809942,0.912760,0.423833,0.815922,0.530830,0.798705,0.848310,0.311428,0.292646,-0.445510,-0.410620,-0.373290,-1.098937,-0.572824,-0.888125,-0.272049,0.060849,-0.275134,0.238853,-0.273062,0.197815,0.565934,0.520391,0.858827,-1.385158,-4.805259,-4.662475,-1.742717,0.027261,-0.505774,-0.272274,-0.145373,-0.283460,0.369281,0.205565,0.141559,0.733894,0.317339,1.045843,0.491519,1.222485,0.810171,0.700288,1.183642,0.207953,0.423593,0.457245,0.371707,1.074810,1.098802,0.275235,0.522426,0.335942,0.846476,0.561547,0.826225,0.899544,0.801346,1.091457,0.486776,0.803680,0.777537,0.329095,0.040526,-0.238997,-0.156879,0.126564,-0.474731,0.585241,0.239246,0.644383,0.218133,-0.115793,0.703749,0.857839,1.113511,0.896051,1.255631,2.168908,1.026921,1.225014,0.657344,0.282022,1.010628,0.877781,1.000000
0.904637,-1.290849,-3.661465,-5.689301,-3.541874,-1.431653,-1.008486,-1.499066,-0.927109,-1.309346,-0.826056,-0.639113,-0.928040,-0.454608,-0.552426,-0.344790,-0.225818,-0.349898,0.194156,-0.648279,0.188290,-0.562486,-0.680589,-0.556480,-0.610499,-0.360729,0.231084,-0.610565,-0.535197,-0.664740,-0.356715,-0.341809,-0.406519,-0.092655,-0.333163,-0.002056,-0.382358,-0.419405,-0.176116,-0.569864,-0.847810,-1.080289,-1.201277,-0.791567,-1.316496,-0.729760,-0.552649,-0.620760,-0.461970,-1.203266,-0.444160,-0.279722,-0.001909,-0.132679,-0.057481,0.844919,0.227007,-0.080485,-0.071900,-0.878234,-0.079827,-0.265754,0.072785,0.444874,0.391686,0.347603,0.030236,0.031786,0.765867,0.360296,0.723059,0.495096,0.849983,0.972300,1.010908,1.211389,0.263897,-0.836015,-0.478492,-0.586702,0.214239,-0.306433,0.486420,0.972726,0.757936,1.076662,1.015204,0.499379,0.954254,1.024148,0.650064,-0.198137,0.117272,0.066350,-0.181542,-0.127953,-0.510758,-0.304570,0.496028,0.727781,0.490581,-0.256788,0.020053,1.245982,0.621513,0.790191,0.084743,0.665537,0.393380,0.144590,-0.141990,-0.635588,0.539507,0.579775,-0.432297,-1.376785,-0.528148,0.157724,0.282552,0.039542,0.884007,0.466642,1.161543,2.043213,0.448481,-1.086156,-1.755218,-1.179289,0.329543,-0.417607,0.484969,-0.664425,0.026163,0.738116,0.330859,0.241560,0.822331,0.846855,-0.263020,1.989502,1.518299,-1.863567,1.424874,-0.173226,0.564075,1.448685,-0.249298,-0.028346,-1.567724,0.132822,-0.402538,0.793952,1.256901,0.234621,0.825059,2.274405,0.120256,0.177187,-1.482190,2.028699,0.478736,0.561962,0.526669,0.212320,0.663700,-1.692990,0.333506,0.490739,-0.586001,-0.370740,1.108633,0.295816,0.647592,0.937268,0.456274,0.713386,1.194906,2.103595,0.459562,0.441242,1.544841,1.281492,1.961754,-0.951454,0.020499,0.000000,0.000000,1.000000
0.612575,-0.886471,-0.645314,-0.580120,-0.525870,0.099932,-0.946552,-1.621159,0.693048,-0.633953,0.005981,0.043516,0.835130,0.713162,0.392710,1.100040,0.420297,0.674383,-0.200257,0.247676,0.592585,0.123375,-0.586896,-0.001658,-0.773299,-1.338223,-2.060067,-0.526841,-0.360569,-1.108491,-0.282278,-1.063754,-0.657339,-0.639132,-0.648012,-0.040739,-1.065342,-1.026947,-0.375377,-1.053781,-0.311781,-0.950953,-0.973647,-1.521907,-1.734804,-0.329057,-0.457392,-0.586528,-0.713484,-0.860500,0.369468,-0.035684,-0.410436,0.569816,-0.428956,-0.156613,-0.229343,0.561039,-0.045640,-1.584467,-0.465714,-1.115444,-0.789356,-1.055349,-1.448889,-0.749329,-0.363322,0.062904,-0.098388,-0.806553,0.003481,0.014699,0.154560,0.321390,-0.345582,0.573650,-0.187026,-0.383960,-1.015169,-0.550959,-0.404795,-1.133354,-0.174337,0.196313,0.073338,0.326310,0.475490,0.033321,0.674438,0.550523,0.789504,0.219914,1.251772,0.867334,-0.181023,-0.328727,-1.257388,-1.043565,-0.059970,-0.640753,-0.396844,-0.147379,0.712945,0.230644,0.341010,0.658915,0.039830,1.109494,-0.232464,0.955592,1.502182,0.679659,-0.066067,-2.778595,-5.720174,-3.670534,-1.624260,-0.894245,-1.290633,-0.164282,0.973588,0.158384,0.826094,0.932150,0.580763,0.998570,0.416538,1.342285,2.037107,1.729799,1.091017,0.104781,0.439602,0.153591,1.017817,0.825447,0.314561,0.997244,0.601923,1.066940,1.502206,1.152630,0.691547,0.407363,1.356930,1.579408,0.860790,1.410041,0.855092,1.179916,0.118698,-0.008237,0.708049,0.005633,-0.171587,0.029300,-0.538271,0.633546,0.607975,0.454055,1.065983,0.551256,0.914311,1.090703,0.842733,0.809306,1.283565,2.066605,0.915768,0.686590,0.133431,0.446599,1.439981,0.000000,0.000000,0.000000,0.000000,0.000000,0.000000,0.000000,0.000000,0.000000,0.000000,0.000000,0.000000,0.000000,0.000000,1.000000
1.316420,1.375640,1.315296,0.580493,1.207041,0.474982,0.675309,0.484232,-0.474230,0.960647,0.824096,1.086363,1.118890,0.919006,1.391490,0.671879,0.786521,1.576410,0.999663,1.478161,0.702262,0.810676,1.160473,0.125302,-0.405058,0.002286,0.512432,0.268765,-0.528543,0.171952,-0.162148,-0.069988,0.661040,-0.033082,0.712256,-0.288814,-0.001101,-0.222224,-0.762307,0.777094,-0.182062,-0.466253,-0.532450,-0.670399,0.029797,-0.844157,-0.752165,0.267640,0.536030,1.183996,0.400218,0.026271,1.026460,1.068175,1.424270,0.865215,0.820598,1.484722,0.757511,1.491937,1.213829,0.048050,0.466016,-0.087758,0.179032,0.117350,0.236134,0.604825,-0.223157,0.293007,0.149796,0.459862,0.838190,0.389296,0.485156,0.227414,0.474652,1.063605,0.878812,1.070663,-0.128828,-0.387046,-0.067281,-0.490851,0.001314,0.102575,0.017179,0.064711,-0.478282,0.133362,0.749304,0.984191,0.411845,-0.150151,0.904646,0.538879,0.266548,0.123280,-0.277428,-0.440748,-1.361282,-0.981422,-0.571083,-1.101573,-0.868346,-0.364743,-0.330969,0.024318,0.245756,0.474660,-0.187129,0.008648,1.047186,0.301879,1.304409,0.479571,-1.259052,-4.714864,-6.720940,-2.323252,-0.249970,-1.024159,-0.370056,-0.645100,0.109295,-0.168250,0.360452,0.913732,-0.126677,0.567026,0.240356,0.291454,0.656281,0.542778,-0.398573,-1.005435,-0.125976,-0.368428,-0.733546,0.523234,-0.436970,0.264757,0.568087,-0.287472,0.656786,-0.004341,-0.348731,0.378357,-0.639182,-0.187294,-0.292156,-0.912020,-1.168188,-2.076549,-1.462285,-1.663754,-1.408513,-1.136362,-1.988781,-0.736475,-1.709927,-1.224104,-0.549362,-0.861461,-0.574539,-0.487670,-0.157763,-0.636220,-0.815100,-0.415798,-1.290469,-1.068533,0.131648,-0.623068,0.155439,-0.293808,0.314679,0.000000,0.000000,0.000000,0.000000,0.000000,0.000000,0.000000,0.000000,0.000000,0.000000,1.000000
1.249752,0.191946,-2.289942,-5.972994,-4.227625,0.071751,-0.321373,-0.132999,0.007932,0.177497,0.664176,0.302641,1.525209,0.689518,0.705579,1.021284,0.625517,1.046740,1.165250,0.614653,-0.412151,-0.076526,0.523925,-0.377675,0.616244,0.617630,0.132553,1.322590,0.362262,0.737462,1.029298,-0.002117,0.753809,0.333664,-0.077626,0.524611,-0.297013,-0.396565,-1.289826,-1.283138,-0.884889,-1.231219,-0.423057,-1.347867,-0.705013,-0.573182,-1.286273,0.007984,-0.366423,-0.100194,-0.098580,0.315663,0.093483,-0.317940,-0.040544,-0.254265,-1.047885,0.490805,0.081764,0.342903,0.484578,0.376816,1.332876,0.408913,0.826022,1.005586,1.232733,1.545476,0.393352,0.460195,1.395821,0.278701,-0.068432,-0.395040,-0.007458,-0.396774,-0.385993,0.564268,-0.171163,0.929071,0.769466,0.229748,0.904861,0.592889,0.551996,1.260295,0.822368,1.032310,0.190491,0.050873,-0.174479,0.151276,0.508142,-0.534473,-0.287224,0.383745,0.263615,0.814553,0.630937,0.010868,-0.047884,-0.144709,0.416184,0.740489,0.307437,0.936977,-0.285914,0.192542,-0.377169,-0.663189,-0.491183,-0.642867,-0.370068,-0.170524,-0.141712,-0.195044,0.213723,-1.356571,-5.392142,-2.752051,0.499913,-0.274845,-0.021871,0.235930,0.084099,-0.286275,-0.442578,0.430431,-0.936831,0.057486,0.729110,-0.078957,1.117862,0.226215,0.982993,0.313625,0.451304,1.226749,0.394764,1.110264,0.330398,-0.248129,-0.444819,-0.820368,-0.044098,0.005155,-0.521635,-0.071316,0.377761,0.696705,-0.313799,-0.053316,0.679967,-0.101964,-0.065488,-0.748817,-1.014214,-0.518435,-1.008887,-1.076972,-2.041751,-1.574603,-0.715432,-1.060361,-0.476536,-0.144957,0.355676,0.388632,0.071868,0.824319,0.705573,0.360168,1.271201,0.672730,0.651067,-0.404954,-0.272743,0.263662,0.000000,0.000000,0.000000,0.000000,0.000000,0.000000,0.000000,0.000000,0.000000,1.000000
0.078754,-0.099080,-4.787432,-5.157070,-0.000726,0.179103,-0.214746,0.368428,0.231236,0.009879,-0.589904,0.386211,-0.294476,-0.782204,1.237953,-0.074948,1.077571,0.723279,0.766854,1.020674,0.114824,1.548521,0.720471,1.070547,0.999886,-0.169027,-0.225165,-0.854238,-0.323090,0.272577,-0.414012,-0.232136,0.349549,0.881332,0.204215,-0.407425,0.865793,0.229196,-0.030616,-0.393062,-1.200913,-0.578076,-0.882062,-1.110615,-1.837385,-2.234557,-0.773842,-1.112382,-0.687808,-0.199482,0.319025,0.619362,0.215814,0.664198,1.216747,0.325139,1.397831,1.076100,0.876040,0.046636,-0.514004,0.341265,0.416138,-0.669955,-0.269318,-0.745072,-0.075722,-0.643088,0.512733,0.800582,-0.576552,-0.399557,-0.616324,-0.065718,0.086850,-0.768762,-0.046195,-0.914685,-1.112920,-1.281851,-2.112007,-0.887844,-1.369119,-1.224801,-0.061543,-1.113021,-0.126607,-0.530816,0.102616,0.230007,0.095483,0.744052,0.698741,0.876352,0.116399,-0.681824,0.056665,-0.466792,-0.670926,-0.897904,-1.250546,0.699001,-0.284667,-0.009788,0.495662,0.611534,1.476731,0.089701,0.764744,0.909521,0.352061,0.745165,-0.186822,-0.025360,0.070215,-0.229275,0.181727,-1.271340,-2.654066,-4.457168,-1.635842,1.091421,0.100060,0.814210,0.604669,0.505014,0.985376,0.404486,1.326260,0.818504,-0.044376,-0.184633,-0.665590,-0.066660,0.349734,-0.426565,0.050619,0.400394,0.372517,0.780918,0.502960,0.838446,0.295348,1.133888,1.199048,0.446787,0.916079,0.885580,-0.220164,-1.155419,-0.438180,0.318173,-0.985853,0.248877,0.932569,-0.039228,-0.006749,-0.595985,0.393993,0.296418,0.190447,0.919362,-0.649155,0.136818,0.381609,-0.155491,-0.286559,-0.338175,0.224490,0.306398,0.444558,1.045349,0.069218,1.928567,1.526629,0.338559,1.553882,0.777662,1.301846,1.224183,0.781882,0.807802,-0.040844,0.274605,0.000000,0.000000,0.000000,1.000000
1.820569,1.266163,0.089300,-1.876060,-0.943686,0.536009,1.181419,0.552483,1.282025,0.362958,0.649092,1.397030,1.490472,0.631637,1.349310,0.533133,0.713332,1.489761,0.935395,0.791318,-0.467700,-0.454844,-0.356603,-0.906803,-0.386508,-0.523012,0.044012,0.449185,0.374509,1.821902,0.305840,0.214488,0.894283,1.265833,0.988815,0.075369,2.513291,-0.084790,-1.172797,-0.287096,-0.903694,-0.623678,-1.210671,-0.752767,-0.136774,-1.461645,0.305057,0.778697,-0.632412,-0.695682,-1.012319,1.245137,0.619130,0.367064,1.228543,0.541461,-1.205009,-1.456534,-0.664291,-0.699803,-1.760740,-0.596899,-1.006880,-0.446985,-0.086916,-0.774108,-0.263595,-0.097141,0.750639,0.544643,-0.211603,0.440130,-0.856807,-0.592952,0.152490,-1.088919,-1.143576,-1.347322,-1.068653,-0.405427,-1.841549,-1.202162,-1.420314,-0.663212,0.191703,-1.233753,-0.058053,-0.194864,-1.143411,-0.285560,0.049362,0.150142,-0.505283,-0.462352,-1.167465,-1.160238,-0.461759,-0.526729,-0.803063,-0.287380,0.055006,0.173937,-0.847774,-0.302241,-0.871453,-0.127587,1.383976,-1.553427,0.765137,1.323328,-1.068476,-0.392573,-0.241590,-0.365416,-0.972164,-1.381786,-0.603059,-0.683857,0.727008,0.888988,-0.692018,-3.211540,-4.465392,-1.118204,-0.590076,0.834029,0.822509,0.953623,0.901439,1.187745,-0.069821,0.334679,-0.585407,-0.289001,-0.668306,-0.790714,0.392380,0.258874,1.061427,0.359610,0.347985,0.919729,0.617633,1.070943,1.076929,0.710735,1.784414,0.867275,0.569066,-0.064966,-0.531852,-0.019878,-1.165036,-0.234608,-0.212422,0.216159,0.611075,0.468492,1.129511,0.499919,0.470380,1.148670,0.079117,1.062528,0.271570,0.473587,0.827391,-0.641060,-0.283394,-0.726075,-0.291452,-0.042723,-0.808004,0.515124,1.073222,1.051909,1.594449,0.664205,1.853444,1.346609,1.865307,0.000000,0.000000,0.000000,0.000000,0.000000,0.000000,1.000000
0.119284,0.426396,-1.048046,-2.376798,-1.052219,0.491893,0.617261,1.020561,0.656659,0.834589,1.071914,0.786624,1.006744,0.711582,0.811122,0.550469,0.453826,0.920057,0.483027,0.777353,0.789431,0.903431,1.551487,1.104654,1.112943,1.077051,1.154463,1.687271,0.987731,1.423545,1.333628,1.059859,1.501548,0.420882,0.636376,0.752099,0.331386,0.670499,0.240832,0.684317,0.707613,0.747356,1.075544,0.571930,0.768986,0.523609,0.807629,1.000691,0.601705,0.941049,0.358187,-0.189471,0.019944,-0.076264,0.244487,0.295352,0.249987,0.640024,0.224432,1.004591,0.915625,0.563159,1.074302,0.675990,1.267541,0.931102,0.771533,1.142102,0.470292,0.430538,0.469753,0.224233,0.656249,0.181020,0.705405,0.702684,0.571902,1.139757,0.701585,1.083656,1.296692,0.968781,1.334450,0.977979,1.341535,1.157257,0.382371,0.539249,-0.332411,0.106814,-0.019003,0.088141,1.057046,0.532007,0.743463,0.399473,0.716405,0.552249,0.212867,0.344018,-0.713645,-0.866922,0.174166,-0.133130,-0.491337,-0.826621,-0.981598,-0.769763,-0.324228,0.153467,0.113667,-0.473675,0.180677,0.717349,1.123964,0.226603,-1.904501,-1.983710,-0.855779,-0.267864,-1.178912,-0.821504,-0.348678,-1.111255,-1.049302,-0.617002,-0.300546,0.170987,0.144081,-0.336539,-0.168637,-0.034563,-0.043287,-0.127172,-0.068820,-0.489968,-0.142990,-0.293916,-1.366242,-0.896894,-1.359469,-1.149241,-1.102376,-1.120841,-0.295026,-0.373288,-0.440277,-0.566935,-1.295843,-0.517975,-0.650388,-0.841044,-0.362081,-1.811233,-1.640563,-1.913718,-1.907554,-1.564514,-2.325738,-2.689097,-2.071286,-1.622275,-1.651586,-1.898476,-1.007185,-0.908194,-1.022814,-0.977987,-0.651024,-0.348227,-0.935551,-1.392058,-1.946290,-2.768146,-2.027317,-2.141263,0.000000,0.000000,0.000000,0.000000,0.000000,0.000000,0.000000,0.000000,0.000000,0.000000,0.000000,1.000000
-1.147563,-2.219541,-1.918037,-1.875164,-1.746443,-2.008410,-1.732019,-2.046811,-2.009806,-2.166900,-2.078941,-1.928325,-2.028797,-1.797093,-1.640779,-1.628476,-1.393281,-1.524277,-1.303519,-1.449182,-1.428005,-1.300180,-1.447819,-1.300908,-1.267863,-1.452833,-1.483898,-1.455552,-1.266724,-1.696735,-1.479976,-1.238225,-1.205020,-1.007901,-1.197226,-1.531640,-1.326208,-1.370646,-1.135497,-1.118144,-0.926620,-0.864820,-0.888212,-0.810386,-0.964175,-0.902581,-0.660182,-0.894912,-0.621469,-0.632504,-0.501047,-0.232330,-0.266980,0.004942,-0.200091,-0.087273,0.062161,-0.042478,0.190853,0.070344,0.080958,0.112993,-0.231368,-0.129795,-0.176169,-0.130596,-0.006620,-0.186861,0.188854,0.239676,0.279941,0.453472,0.286953,0.544832,0.451335,0.549642,0.676857,0.500239,0.798192,0.639388,0.614010,0.539976,0.257829,0.501553,0.454134,0.464916,0.664460,0.549474,0.887669,0.767204,0.843500,1.008605,0.750184,0.879270,0.846378,0.865845,0.943529,0.845294,1.006321,0.705772,0.553799,0.588549,0.432529,0.613727,0.514157,0.571739,0.784252,0.846613,1.174906,1.011210,0.525581,-0.375674,-0.644549,0.739271,0.931229,1.025696,1.237988,0.934635,0.773360,0.631292,0.638174,0.597231,0.585652,0.773963,0.794709,0.881060,0.995603,0.823296,1.129690,0.965713,1.162581,1.274540,1.308648,1.357227,0.805103,0.723266,0.668691,0.519909,0.762098,0.544094,0.719683,0.686570,0.694456,1.019891,0.855064,0.852769,0.896360,0.671100,0.952885,0.673858,0.716169,0.808506,0.571835,0.577095,0.254411,0.151791,0.332889,0.078796,0.444809,0.353925,0.682691,0.641955,0.738089,0.892018,0.849422,0.880962,0.989251,0.826567,1.222614,0.794861,1.171429,0.000000,0.000000,0.000000,0.000000,0.000000,0.000000,0.000000,0.000000,0.000000,0.000000,0.000000,0.000000,0.000000,0.000000,0.000000,0.000000,1.000000
0.503573,1.546527,1.401576,1.017884,1.638120,1.255284,0.713784,1.035491,0.658586,1.034904,0.637632,0.785915,1.302106,1.050180,1.644532,1.439317,1.587664,1.546545,1.338823,1.983022,1.644204,1.768291,1.881016,1.403119,1.862725,1.225106,0.802635,0.951515,0.033487,0.635443,0.294934,0.523802,0.744977,0.499860,1.301832,0.783383,0.883026,0.732737,0.392971,0.993766,0.584617,0.626156,0.703270,0.372920,0.405116,-0.441406,-0.476770,-0.278458,-0.402378,0.122724,-0.282256,0.226677,0.885199,0.378822,1.339500,0.858952,1.028258,1.161105,0.743585,1.417996,1.037836,1.148429,1.287838,0.220984,0.331797,-0.160683,0.045597,0.209314,-0.043203,0.551381,0.324339,0.670619,0.682131,0.358516,1.001362,0.671567,0.743427,0.795623,0.599004,0.926751,0.360689,0.294218,-0.023144,-0.585034,-0.292306,-0.553742,-0.428079,-0.109742,-0.258324,0.664419,0.558630,0.423457,0.794492,0.182513,0.908227,0.373205,0.290416,0.237802,-0.142489,-0.015182,-0.897618,-0.827560,-0.748002,-1.477569,-0.747265,-1.236109,-0.943219,-0.424873,-0.923991,-0.191409,-0.444502,-0.223507,-0.162646,-0.443274,-0.155016,-1.722128,-3.666624,-3.060494,-0.801207,-0.422914,-1.444163,-0.949693,-0.795161,-1.592682,-0.785283,-0.954266,-0.364482,-0.491514,-0.712675,-0.178162,-0.715808,-0.489479,-0.532318,-0.790776,0.098914,-0.310921,-0.115052,-0.541226,-1.282110,-1.133275,-1.547903,-1.143707,-0.958408,-1.259808,-0.588128,-0.930749,-0.685237,-0.686684,-0.897624,-0.276423,-0.902719,-0.611861,-0.674467,-1.074822,-0.352441,-1.252229,-1.239332,-1.726157,-2.097879,-1.802424,-2.373951,-1.850256,-1.174125,-1.532101,-0.720254,-0.862832,-0.469604,-0.324586,-0.527837,-0.057035,-0.367684,0.181084,0.148097,-0.660611,-0.319399,-1.316418,0.000000,0.000000,0.000000,0.000000,0.000000,0.000000,0.000000,0.000000,0.000000,0.000000,0.000000,1.000000
0.663523,-0.268985,-3.012495,-3.828280,-1.294341,0.462259,-0.540691,-0.922744,0.091242,-1.028405,-0.615356,-0.228312,-0.114725,0.509756,-0.229801,0.418309,0.231821,-0.112302,0.381373,-0.310665,0.531453,0.733626,0.400282,0.607594,-0.623532,-0.662501,-0.911827,-1.021590,-0.278559,-0.790992,-0.268302,-0.074688,-0.374941,0.155786,-0.431241,0.220949,0.093706,-0.363638,0.290822,-0.631350,0.122054,-0.195172,-0.939179,-0.883082,-1.872705,-1.501560,-1.849129,-2.071429,-0.786036,-1.029156,-0.604322,-0.041553,-0.223233,0.561814,0.048630,0.563911,0.506926,0.568437,1.302144,0.232839,0.245161,-0.178823,-0.796544,-0.057057,-0.655832,-0.247314,-0.331084,-0.282938,0.637173,-0.086958,0.615303,0.502289,0.384210,1.247430,0.815267,1.365647,1.179779,0.602748,0.792716,-0.945413,-0.054930,-0.619200,-1.093953,-0.024062,-0.769829,-0.098849,0.180539,0.218785,0.648091,-0.113372,0.316357,0.616970,0.194376,0.983133,0.459484,0.779527,0.291986,-0.528355,0.089869,-0.984989,-0.334593,-0.849576,-0.713149,0.035744,-0.375790,0.004449,-0.109866,-0.238064,0.582689,-0.152748,0.447807,0.289768,0.219199,0.076088,-0.937795,-0.382349,-0.297067,-1.070705,-2.991677,-6.236721,-1.924406,1.438648,0.576421,0.812411,0.163920,0.430056,0.698226,0.234241,1.109723,0.330390,0.901678,0.324658,-0.777388,-0.100799,-0.477146,-0.228194,-0.040145,0.093058,0.983761,0.417938,1.250554,0.453105,-0.160526,1.011464,0.405836,0.498322,0.526956,0.424243,0.528381,-0.833041,-0.093235,-1.096310,-0.917964,-0.472791,-0.798832,0.031763,-0.067397,-0.167092,0.123961,-0.538885,0.678049,0.043530,-0.171003,0.937477,0.692796,1.078252,0.319331,-0.235482,0.414152,-0.026549,0.557453,0.386002,0.703432,1.733529,1.076858,1.997142,2.072446,1.467044,1.704578,1.500649,1.959938,1.711397,1.807263,1.490731,0.000000,0.000000,0.000000,1.000000
0.238693,0.468316,0.205740,-0.290131,0.564859,-0.124231,0.554268,0.459765,0.138341,0.693330,-1.112911,-0.799996,-0.669316,-0.951238,-0.346303,-0.581492,0.523679,0.320478,0.565313,0.868325,-0.750313,0.397761,0.477124,-0.068503,0.408559,-0.082485,0.487351,-0.971217,-0.854522,-1.017752,-1.903928,-0.822101,-1.372660,-0.675680,-0.283115,-0.709409,-0.192717,-0.890248,-0.166393,0.259461,-0.950437,0.502263,0.450018,0.737987,0.416767,-0.706871,-0.068910,-0.244948,-0.080384,0.321823,-0.019217,1.538666,0.986161,1.490344,2.220761,1.357344,1.533001,1.370114,1.706282,1.746752,1.556771,1.611555,0.591897,0.574991,0.416105,-0.099242,0.561478,-0.152033,0.525625,1.347066,0.595455,1.712854,0.691551,1.158313,1.759852,0.956478,1.615037,1.229215,1.338366,1.403583,-0.123377,0.350126,-0.651814,-0.023310,0.255186,-0.143067,0.845686,0.576726,1.127495,1.165723,1.017153,1.296224,0.383473,0.856619,0.804590,0.570510,1.152208,0.240645,0.337048,-0.428703,-1.339799,-0.525004,-1.074337,-0.584394,-0.411852,-0.143855,0.639374,0.320794,0.566890,0.085622,-2.218410,-4.365824,-2.719775,1.895597,1.348749,0.430122,0.930194,-0.652926,-0.565474,-0.959909,-1.288269,-0.244101,-0.722318,0.098288,-0.047263,-0.002787,0.754855,-0.035511,0.841421,0.244611,0.010603,0.841169,-0.214312,0.465821,-0.449067,-1.196649,-0.735225,-1.790843,-0.928246,-1.307287,-1.245236,-0.194406,-0.682782,0.195226,-0.471721,-0.606892,0.265119,-0.661361,0.014137,-0.420250,-0.746116,-0.407095,-1.219288,-1.561464,-2.095439,-2.187865,-1.574168,-2.384292,-1.159401,-0.870109,-0.471512,0.057181,-0.555004,0.233732,0.096351,0.067511,0.400248,0.262436,0.831427,0.235707,0.300571,0.257006,-1.149331,-0.492249,-1.201468,-1.116153,0.000000,0.000000,0.000000,0.000000,0.000000,0.000000,0.000000,0.000000,0.000000,0.000000,0.000000,1.000000
1.670099,1.464315,1.684396,0.711795,0.009943,0.260713,-0.670368,0.493461,0.203107,0.643010,1.006157,0.597088,1.565619,0.967217,1.331937,1.520191,0.576968,1.683829,0.866597,1.019872,0.955540,-0.442465,0.174925,-0.698768,-0.464758,-0.096744,-0.742128,0.529111,0.249127,0.705361,0.830585,-0.061175,1.058491,0.436690,0.525894,0.789848,-0.009732,0.456657,-0.058413,-0.655510,-0.966950,-1.509666,-0.769387,-1.290982,-0.953446,0.139895,-0.037130,0.982446,0.362003,0.759572,1.106297,0.799474,1.176108,1.114149,1.425787,1.481818,0.838525,1.465790,0.048234,0.048520,0.101180,-0.566918,0.242163,-0.353999,0.185432,0.916740,0.334040,1.348163,0.528285,0.809339,1.319961,0.798580,1.503835,0.419138,1.176381,1.199847,0.343952,0.330434,-0.855632,-0.586088,-0.484521,-0.699236,0.185707,-0.029016,0.451406,0.492772,0.236797,0.839659,0.221843,0.686103,1.351990,0.617352,1.707941,0.851585,1.077958,0.615487,-0.438726,0.116315,-0.613779,-0.441782,-0.084735,-1.080099,0.045942,-0.387603,0.040067,0.119268,-0.191523,0.466152,0.066236,0.368125,0.594189,-0.054091,0.637300,-0.204290,-0.438564,-0.786216,-0.984618,-0.420088,-0.809897,-1.420583,-3.895817,-5.851908,-1.909392,0.439039,0.619201,0.305781,-0.257995,0.810043,0.011537,0.658974,0.421838,0.230856,0.733871,-0.866717,-0.745252,-0.665449,-1.171580,-0.522545,-1.124267,-0.713241,0.034392,-0.139437,0.173580,-0.266510,0.324638,0.496909,0.005324,0.917722,-0.000072,0.274458,0.069089,-1.022128,-0.650681,-1.373687,-0.534732,-0.711006,-1.431111,-0.761926,-1.366437,-0.844808,-0.800772,-1.355557,-0.267982,-1.421447,-1.132323,-1.153118,-0.991609,-0.447813,-1.365402,-1.732892,-1.331761,-0.672312,-0.270278,-2.393612,-1.233152,-0.534913,-0.600146,-0.151609,-0.985197,-0.095415,-0.143083,-0.147007,1.100690,-0.798253,0.247325,0.251885,0.000000,1.000000
1.110852,1.737124,1.295397,0.990290,0.256934,-0.241134,0.467474,0.026928,0.080333,0.265377,0.530974,1.182953,1.030318,1.197005,0.807625,0.221979,1.273318,0.639305,0.692726,-0.027220,-1.155147,-0.175742,-1.386520,-1.537963,-1.288584,-1.630399,-1.193523,-1.602129,-1.085935,-0.378154,-0.342591,0.838770,0.445685,0.748027,0.191364,-0.771131,-0.655730,-1.145262,-0.643939,-1.043980,-1.587343,-1.630195,-2.194452,-1.907947,-1.796739,-1.773171,-0.856638,-0.869726,0.152886,0.949224,0.854377,1.419913,0.983423,0.529097,-0.220649,-0.648398,-0.262561,-0.300962,0.143327,-0.647473,-1.135800,-0.955470,-1.195874,-0.828058,-0.905109,-0.553525,0.476256,0.609389,1.621984,1.421495,1.242195,1.065517,-0.445975,-0.105636,-0.486978,-0.408242,-0.093163,-1.044492,-0.702396,-1.061931,-1.315165,-0.730881,-1.062560,-0.720749,-0.040448,0.774974,1.553158,1.206485,1.708261,1.143595,0.296920,0.241742,-0.424474,0.107106,0.432226,0.226537,0.304088,-1.115570,-0.443318,-0.395696,-0.297922,-0.061144,-0.307998,0.807097,1.000027,1.403714,1.880637,0.382647,0.111870,-0.285135,-0.546201,-0.611742,-0.347045,-0.575162,-1.663150,-1.096270,-0.958826,-0.755967,-0.152981,-1.252709,-2.231856,0.406200,2.408197,2.522231,1.313374,0.636610,0.002806,-0.633732,0.249356,-0.724896,-0.192460,-0.334172,-0.715386,-0.433027,-1.324915,-0.674853,-0.278293,0.357986,1.325298,1.076206,1.613449,2.017296,0.905736,0.163666,-0.059740,0.471406,0.100708,-0.047806,0.108210,-0.484921,-0.772428,-0.270898,-0.450950,-0.356285,-0.983288,0.263310,1.246051,1.114195,2.189358,1.273568,0.030253,-0.337600,-0.609223,0.162682,-0.678908,-0.507344,-0.458484,-0.970834,-0.580381,-0.799190,-0.383829,-0.322170,0.096994,1.356458,1.740054,2.363438,2.244273,1.721734,0.982342,-0.094079,0.259977,0.234435,-0.273935,0.170903,-1.138706,0.000000,0.000000,1.000000
1.523478,1.292962,0.089584,-0.213700,-1.293662,-0.342022,-1.048303,-1.002066,-0.636904,-1.379525,-0.880547,-1.777130,-1.474427,-0.853583,-0.439031,0.695533,0.673737,0.853820,1.649010,0.693067,-0.201599,-0.650296,-0.147555,-0.269906,-0.629482,-0.416166,-0.807081,-1.404142,-0.887857,-0.967877,-0.874049,-1.420450,-0.842515,0.744790,0.496479,1.478136,1.287061,-0.314513,-0.722298,-1.246718,-0.507383,-0.897856,-1.308635,-0.813717,-1.534269,-1.203319,-1.307022,-1.112903,-0.806559,-0.746336,0.533893,1.167716,1.694277,1.951169,1.379885,0.823987,-0.375169,-0.522324,-0.071423,-0.844962,-0.342480,-1.297272,-1.077634,-0.585057,-1.096224,-0.371239,-0.626865,0.257818,1.107892,1.389723,2.301029,1.683950,0.837191,0.387562,-0.001151,0.356253,-0.067517,0.112414,0.125082,-0.675525,-0.849990,-1.119882,-0.955330,-0.626532,-0.935880,-0.073048,0.411332,1.148343,2.027297,1.561530,1.658604,0.099755,-0.423628,-0.016766,-0.292984,0.209695,-0.258714,-0.616572,-0.649554,-1.190168,-0.350404,-0.754718,-0.741406,-0.212719,0.045839,1.373806,1.287786,1.580115,1.409793,-0.050446,-0.361334,-0.623606,-0.381528,-0.290280,-0.993752,-0.520118,-1.572098,-1.259715,-0.735660,-0.695676,0.151329,-1.392426,-1.844915,0.833999,1.987690,2.357567,1.100304,0.016792,0.215595,-0.498140,0.422161,-0.433181,-0.051153,-0.430242,-1.035216,-0.646195,-0.804506,-0.609317,-0.621931,-0.306958,1.030997,1.643223,2.106262,2.097633,0.537397,0.603137,0.108855,-0.082861,0.351494,-0.198172,-0.006415,-1.129187,-0.433993,-0.584488,-0.847282,0.022751,0.036286,0.662824,1.459767,2.001996,2.026588,0.963084,0.355828,-0.356260,-0.275356,0.119475,-0.606238,-0.130552,-0.284898,-0.904457,-0.376619,-0.865801,0.227421,0.129790,0.554900,1.693251,1.840487,2.359826,2.174521,0.602436,0.504792,0.175877,0.741292,0.509882,-0.454658,0.490268,-0.519002,1.000000
1.476169,1.538849,-0.348953,0.094681,-0.795033,-0.065948,-0.417246,-0.594553,-0.393837,-1.280322,-1.010999,-1.010258,-0.992057,-0.834054,-0.847508,0.288827,1.180400,1.532168,1.924593,0.655895,0.099388,0.147067,-0.583266,0.118205,-0.465112,-0.221885,-1.120898,-1.051468,-0.610916,-1.243013,-0.476281,-0.244393,0.048054,0.936332,1.443942,1.798290,0.919575,0.194991,-0.448949,-0.718181,-0.180371,-0.681978,-0.700364,-0.290586,-1.220250,-0.678368,-1.101510,-0.419484,-0.013727,-0.087881,1.118051,1.449260,1.770708,2.063175,0.628836,0.126276,-0.011166,0.132240,0.524799,-0.730135,0.000109,-0.444686,-0.468480,-0.638724,-0.766949,-0.185058,-0.028297,0.588154,1.279988,1.532563,2.520646,1.642244,0.642797,0.341456,-0.194505,0.513561,0.217896,0.185842,-0.099889,-1.104050,-0.705444,-0.973120,-1.247618,-0.637676,-0.506365,0.563628,0.882915,1.267845,1.728356,1.348022,0.942568,-0.240860,-0.034867,0.252003,-0.550003,0.833392,-0.746897,-1.176833,-0.692054,-0.605481,-0.026081,-1.088930,-0.110396,1.085130,1.845773,2.113198,1.534441,1.438869,0.658022,-0.368946,0.316943,-0.333008,-0.164585,-0.020478,-0.851358,-0.480557,-1.269256,-1.066183,-1.013136,-1.236283,-0.145171,-0.045874,0.863657,1.536918,1.707794,1.020489,-2.333866,-2.604587,-0.233511,0.082479,0.160923,-0.528542,-0.226643,-0.687412,-1.579166,-0.760691,-1.174233,-0.715619,-0.764230,-0.154742,1.015951,1.173605,1.912494,1.552033,0.737907,0.419876,-0.298096,0.063108,0.015179,-0.318934,0.041915,-1.163271,-0.613026,-1.034602,-1.317900,-0.692340,-0.810481,0.468732,0.829226,1.301751,1.686221,1.002962,0.671932,-0.519923,-0.732276,-0.591166,-0.836012,-0.348374,-0.726038,-0.771502,-1.650639,-2.243536,-1.397963,-1.501423,-1.664861,-0.543836,-0.267874,1.034428,1.337610,1.842340,2.370974,0.807914,0.027176,-0.271542,-0.224878,0.290065,0.000000,1.000000
1.177709,1.675269,0.513937,0.247908,-0.457107,-0.062130,-0.192251,-0.270237,0.339044,-0.604559,-0.842816,-0.753330,-1.057292,-0.475324,-0.878973,-0.443477,0.083286,0.230014,1.546435,1.302606,1.816056,1.834483,0.276410,0.466407,-0.496761,-0.069905,-0.074929,-0.298874,0.142759,-0.720057,-0.799520,-1.113078,-1.234953,-0.699470,-1.538619,-0.798633,-0.002562,0.174590,1.027195,0.859534,1.282485,1.233331,-0.253318,-0.090446,-0.450947,0.019578,0.290946,-0.151852,0.445426,-0.697350,-0.339439,-0.535715,-0.839341,-0.193679,-0.814789,0.208672,0.818235,1.206524,2.094505,1.585851,2.223750,1.471448,-0.006762,0.568005,0.026655,0.644833,0.544516,0.002788,-0.099094,-0.942555,-0.460518,-0.516116,-0.605437,-0.000063,0.147885,1.242036,1.587116,1.783505,1.996927,1.130200,0.716560,-0.188752,-0.435733,0.217564,-0.090696,0.338132,-0.443853,-0.954202,-0.563612,-0.843032,-0.237103,-0.608881,-0.356678,0.525332,0.754748,2.083529,1.988317,1.602301,1.559023,0.032216,0.126478,-0.280268,-0.548009,-0.039029,-0.803547,0.008738,-0.955409,-1.331436,-0.844446,-1.225982,-0.686011,-0.865277,-0.412491,0.940225,0.749935,1.727928,1.700775,0.728181,-1.932541,-2.331674,0.500202,0.571400,0.053092,0.430493,-0.786312,-0.908931,-1.301530,-1.129476,-0.601956,-1.150691,-0.285837,0.042489,0.487800,1.560627,1.371295,2.135427,1.194007,-0.279142,-0.553742,-1.105726,-0.417180,-0.509282,-0.737238,-0.562928,-1.575442,-1.313134,-1.744155,-1.274352,-0.933143,-0.722730,0.259292,0.514934,1.145684,1.360508,0.762740,0.352622,-0.596561,-0.837732,-0.708140,-1.465022,-0.815116,-1.322684,-1.701040,-1.579993,-2.039048,-1.415991,-1.287006,-0.980405,-0.144013,0.272197,1.633461,1.618633,1.559982,1.348307,-0.086043,0.078292,-0.170476,-0.419185,0.000000,0.000000,0.000000,0.000000,0.000000,0.000000,0.000000,0.000000,0.000000,1.000000
0.722018,0.431666,1.106846,0.059304,-0.618849,-0.667330,-1.120463,-0.480023,-1.056950,-0.506633,-0.695143,-1.557289,-1.247588,-1.571337,-1.086784,-1.098338,-1.375182,-0.452418,-0.173972,0.724839,0.945481,0.754476,0.831691,-0.891682,-0.727182,-0.698966,-0.876201,-0.302966,-0.818960,-0.692135,-1.217302,-1.366895,-1.028697,-1.073851,-0.435653,-0.043663,0.047050,-0.612909,-0.424825,2.238134,2.424325,1.784107,1.017029,-0.520605,0.010729,-0.161506,-0.221442,0.151852,-0.350937,-0.470996,-0.787600,-1.027745,-0.612623,-0.926313,-0.540813,-0.232430,0.427475,1.796730,1.581313,2.080400,1.961937,0.912704,0.529419,-0.188416,0.321192,-0.111360,0.104995,0.322968,-0.911203,-0.725718,-1.050243,-0.885431,-0.697691,-0.827578,-0.208268,-0.095490,0.971474,1.688383,1.424852,1.919273,1.160946,0.491849,-0.073970,-0.619462,-0.043494,-0.391070,-0.138585,-0.157390,-0.779977,-0.444965,-0.904350,-0.455519,-0.273972,-0.600198,0.460733,0.534595,1.548905,2.127619,1.646881,2.509542,0.821763,0.762053,0.000000,0.000000,0.000000,0.000000,0.000000,0.000000,0.000000,0.000000,0.000000,0.000000,0.000000,0.000000,0.000000,0.000000,0.000000,0.000000,0.000000,0.000000,0.000000,0.000000,0.000000,0.000000,0.000000,0.000000,0.000000,0.000000,0.000000,0.000000,0.000000,0.000000,0.000000,0.000000,0.000000,0.000000,0.000000,0.000000,0.000000,0.000000,0.000000,0.000000,0.000000,0.000000,0.000000,0.000000,0.000000,0.000000,0.000000,0.000000,0.000000,0.000000,0.000000,0.000000,0.000000,0.000000,0.000000,0.000000,0.000000,0.000000,0.000000,0.000000,0.000000,0.000000,0.000000,0.000000,0.000000,0.000000,0.000000,0.000000,0.000000,0.000000,0.000000,0.000000,0.000000,0.000000,0.000000,0.000000,0.000000,0.000000,0.000000,0.000000,0.000000,0.000000,0.000000,0.000000,0.000000,1.000000
1.397489,2.500933,0.673885,0.505254,-0.017697,-0.557481,0.181001,-0.690113,-0.463156,-0.988442,-0.897519,0.410796,0.182927,0.739091,0.755525,0.701406,1.126636,0.792694,2.235106,0.990142,0.700358,1.040285,-0.875281,0.001722,-0.331900,-0.469618,-0.500433,-1.474425,0.514954,-0.303450,-1.434555,0.430144,-1.146622,-0.341271,-0.201122,0.591709,1.693431,0.927958,1.851174,2.058336,0.823356,-2.027182,-2.061261,1.265843,0.410952,-0.020897,0.193417,-0.781120,0.390511,-0.428963,-0.374325,-0.254513,-1.128070,0.096381,0.321463,0.596049,1.050101,0.922885,2.042509,0.473991,-0.245757,-0.022190,-1.044911,-0.291568,-0.407571,-0.609946,-0.427085,-0.512624,0.314274,-1.008110,-1.312024,-0.675786,-0.456256,0.746163,-0.053387,0.831672,0.634444,0.132224,0.793810,-0.902573,-0.311096,-1.648385,-1.153580,-0.920384,-2.186560,-0.767613,-1.945865,-1.760731,-0.359977,-1.359699,-0.358147,0.069433,0.270919,1.264948,0.448476,1.614556,0.293649,0.461037,0.386496,-0.651025,-0.690256,0.000000,0.000000,0.000000,0.000000,0.000000,0.000000,0.000000,0.000000,0.000000,0.000000,0.000000,0.000000,0.000000,0.000000,0.000000,0.000000,0.000000,0.000000,0.000000,0.000000,0.000000,0.000000,0.000000,0.000000,0.000000,0.000000,0.000000,0.000000,0.000000,0.000000,0.000000,0.000000,0.000000,0.000000,0.000000,0.000000,0.000000,0.000000,0.000000,0.000000,0.000000,0.000000,0.000000,0.000000,0.000000,0.000000,0.000000,0.000000,0.000000,0.000000,0.000000,0.000000,0.000000,0.000000,0.000000,0.000000,0.000000,0.000000,0.000000,0.000000,0.000000,0.000000,0.000000,0.000000,0.000000,0.000000,0.000000,0.000000,0.000000,0.000000,0.000000,0.000000,0.000000,0.000000,0.000000,0.000000,0.000000,0.000000,0.000000,0.000000,0.000000,0.000000,0.000000,0.000000,0.000000,0.000000,1.000000
0.767198,1.047582,1.424582,0.363626,1.005931,-0.259323,0.546222,0.484528,-0.687701,-0.021868,-1.162784,-1.475961,-1.046918,-2.098569,-1.419594,-1.545105,-1.005623,0.174203,0.076947,0.910346,0.526911,0.496880,1.129758,-0.023460,0.696107,0.194793,0.932696,1.382959,-0.821071,-2.575700,-2.549717,-0.221934,-0.454290,-1.042442,-0.206439,-0.710727,-0.077297,0.817851,0.417955,1.427226,1.027509,1.339359,2.001134,0.732412,1.121064,0.795796,0.764432,1.048015,0.536823,0.898405,-0.642929,-1.008367,-0.475365,-1.083906,-0.429400,-0.839378,0.432540,0.976238,0.459713,1.185003,0.830809,1.464128,1.135643,0.158723,0.864619,-0.269123,0.079978,0.243234,-0.334911,0.010542,-1.934161,-1.336839,-1.697557,-2.113792,-1.088017,-1.209220,-0.389964,-0.191597,-0.416919,0.409272,0.046344,0.462933,0.518821,-0.222469,0.589811,-0.020632,-0.014131,0.476913,-0.309311,0.000000,0.000000,0.000000,0.000000,0.000000,0.000000,0.000000,0.000000,0.000000,0.000000,0.000000,0.000000,0.000000,0.000000,0.000000,0.000000,0.000000,0.000000,0.000000,0.000000,0.000000,0.000000,0.000000,0.000000,0.000000,0.000000,0.000000,0.000000,0.000000,0.000000,0.000000,0.000000,0.000000,0.000000,0.000000,0.000000,0.000000,0.000000,0.000000,0.000000,0.000000,0.000000,0.000000,0.000000,0.000000,0.000000,0.000000,0.000000,0.000000,0.000000,0.000000,0.000000,0.000000,0.000000,0.000000,0.000000,0.000000,0.000000,0.000000,0.000000,0.000000,0.000000,0.000000,0.000000,0.000000,0.000000,0.000000,0.000000,0.000000,0.000000,0.000000,0.000000,0.000000,0.000000,0.000000,0.000000,0.000000,0.000000,0.000000,0.000000,0.000000,0.000000,0.000000,0.000000,0.000000,0.000000,0.000000,0.000000,0.000000,0.000000,0.000000,0.000000,0.000000,0.000000,0.000000,0.000000,0.000000,0.000000,1.000000
0.983699,0.970818,1.969515,0.748566,1.167908,0.892800,0.321886,1.035421,0.201534,1.212314,0.015746,-0.209339,0.208876,-1.239086,-0.007527,-0.417673,-0.144393,0.915247,0.618013,1.160888,0.819917,0.881853,1.416882,0.542355,0.829700,-0.188184,0.177032,0.845904,0.250784,0.870683,-0.944034,-0.925945,-0.747230,-1.494257,-0.314014,-0.618310,0.711998,1.319544,-1.035836,-1.669629,0.179505,2.290315,2.233948,0.878705,1.176521,0.409789,0.732665,1.141517,0.088616,0.260868,-0.658793,-0.870867,-0.929948,-1.336663,-0.310227,-0.184422,0.196316,0.946237,0.837101,1.497473,1.114885,0.761942,0.744626,0.218877,0.490307,0.188397,-0.003619,0.482939,-0.647338,-0.576446,-1.552360,-1.309019,-0.981395,-1.927431,-0.647457,-1.039687,-0.065716,0.264901,-0.221303,0.809293,0.431339,0.061102,-0.108158,-1.200485,-0.404104,-1.462963,-1.112355,-0.626548,-1.485188,-1.466172,-2.542367,-1.789173,-1.190320,-2.001923,-1.044102,-1.529324,-0.193426,0.320041,-0.213220,0.622304,0.278287,0.125906,0.587148,0.126225,0.000000,0.000000,0.000000,0.000000,0.000000,0.000000,0.000000,0.000000,0.000000,0.000000,0.000000,0.000000,0.000000,0.000000,0.000000,0.000000,0.000000,0.000000,0.000000,0.000000,0.000000,0.000000,0.000000,0.000000,0.000000,0.000000,0.000000,0.000000,0.000000,0.000000,0.000000,0.000000,0.000000,0.000000,0.000000,0.000000,0.000000,0.000000,0.000000,0.000000,0.000000,0.000000,0.000000,0.000000,0.000000,0.000000,0.000000,0.000000,0.000000,0.000000,0.000000,0.000000,0.000000,0.000000,0.000000,0.000000,0.000000,0.000000,0.000000,0.000000,0.000000,0.000000,0.000000,0.000000,0.000000,0.000000,0.000000,0.000000,0.000000,0.000000,0.000000,0.000000,0.000000,0.000000,0.000000,0.000000,0.000000,0.000000,0.000000,0.000000,0.000000,0.000000,0.000000,1.000000
