0.169378,0.155323,0.169378,0.155323,0.141268,0.085048,0.056938,0.085048,0.085048,0.085048,0.056938,0.014773,0.014773,0.028828,0.042883,0.056938,0.042883,0.028828,0.014773,0.042883,0.028828,0.056938,0.014773,-0.027391,0.000718,0.014773,0.014773,0.014773,-0.013337,0.000718,-0.027391,-0.027391,0.014773,0.014773,0.000718,-0.013337,-0.055501,-0.027391,0.000718,0.014773,0.000718,-0.027391,-0.027391,-0.041446,-0.013337,0.000718,-0.027391,-0.055501,-0.069556,-0.041446,-0.013337,-0.013337,-0.041446,-0.083611,-0.027391,-0.041446,-0.027391,-0.041446,-0.055501,-0.069556,-0.097666,-0.041446,0.000718,0.014773,-0.027391,-0.041446,-0.041446,-0.027391,-0.013337,0.000718,0.000718,-0.069556,-0.055501,-0.041446,-0.041446,-0.013337,-0.041446,-0.055501,-0.055501,-0.055501,-0.013337,-0.013337,-0.027391,-0.055501,-0.083611,-0.083611,-0.013337,-0.013337,-0.013337,-0.055501,-0.055501,-0.027391,-0.041446,-0.027391,-0.013337,-0.041446,-0.027391,0.000718,-0.027391,0.014773,0.014773,-0.027391,-0.069556,0.014773,0.000718,0.000718,-0.013337,-0.013337,-0.041446,0.014773,0.056938,0.056938,0.085048,0.085048,0.127213,0.197488,0.408313,0.970512,2.038689,2.938208,2.896043,2.474394,2.488449,2.994428,3.655011,4.245320,4.723189,5.088618,5.116728,4.652914,3.669066,2.404119,0.829962,-0.744195,-2.009143,-2.964881,-3.639519,-4.004949,-3.878454,-3.203815,-2.416737,-1.826428,-1.517219,-1.320449,-1.151789,-0.940965,-0.828525,-0.702030,-0.617700,-0.561480,-0.533370,-0.491206,-0.477151,-0.463096,-0.477151,-0.505261,-0.505261,-0.505261,-0.505261,-0.505261,-0.519316,-0.533370,-0.575535,-0.533370,-0.519316,-0.519316,-0.575535,-0.631755,-0.617700,-0.645810,-0.603645,-0.631755,-0.631755,-0.673920,-0.687975,-0.659865,-0.645810,-0.687975,-0.631755,-0.702030,-0.730140,-0.659865,-0.687975,-0.687975,-0.716085,-0.730140,-0.730140,-0.744195,-0.687975,-0.702030,-0.702030,-0.730140,-0.772305,-0.758250,-0.702030,-0.702030,-0.702030,-0.716085,-0.744195,-0.730140,-0.702030,-0.716085,-0.716085,-0.758250,-0.772305,-0.702030,-0.687975,-0.645810,-0.617700,-0.687975,-0.631755,-0.547425,-0.533370,-0.519316,-0.491206,-0.491206,-0.434986,-0.378766,-0.336601,-0.280381,-0.238216,-0.224161,-0.196051,-0.125776,-0.041446,-0.041446,0.028828,0.028828,0.042883,0.113158,0.197488,0.197488,0.267763,0.253708,0.281818,0.323983,0.380203,0.394258,0.394258,0.366148,0.352093,0.394258,0.408313,0.422368,0.408313,0.394258,0.408313,0.450478,0.436423,0.464533,0.450478,0.450478,0.450478,0.436423,0.478588,0.478588,0.478588,0.464533,0.436423,0.436423,0.492642,0.478588,0.478588,0.422368,0.450478,0.408313,0.450478,0.436423,0.408313,0.380203,0.366148,0.366148,0.380203,0.394258,0.352093,0.309928,0.281818,0.295873,0.295873,0.281818,0.295873,0.253708,0.211543,0.211543,0.239653,0.239653,0.211543,0.169378,0.155323,0.155323,0.169378,0.197488,0.197488,0.141268,0.155323,0.155323,0.127213,0.141268,0.127213,0.085048,0.099103,0.085048,0.141268,0.141268,0.113158,0.099103,0.113158,0.113158,0.141268,0.127213,0.127213,0.099103,0.056938,0.000000,0.000000,0.000000,0.000000,0.000000,0.000000,0.000000,0.000000,0.000000,0.000000,0.000000,0.000000,0.000000,0.000000,0.000000,0.000000,0.000000,0.000000,0.000000,0.000000,0.000000,0.000000,0.000000,0.000000,0.000000,0.000000,0.000000,0.000000,0.000000,0.000000,0.000000,0.000000,0.000000,0.000000,0.000000,0.000000,0.000000,0.000000,0.000000,0.000000,0.000000,0.000000,0.000000,0.000000,0.000000,0.000000,0.000000,0.000000,0.000000,0.000000,0.000000,0.000000,0.000000,0.000000,0.000000,0.000000,0.000000,0.000000,0.000000,0.000000,0.000000,0.000000,0.000000,0.000000,0.000000,0.000000,0.000000,0.000000,0.000000,0.000000,0.000000,0.000000,0.000000,0.000000,0.000000,0.000000,0.000000,0.000000,0.000000,0.000000,0.000000,0.000000,0.000000,0.000000,0.000000,0.000000,0.000000,0.000000,0.000000,0.000000,0.000000,0.000000,0.000000,0.000000,0.000000,0.000000,0.000000,0.000000,0.000000,0.000000,0.000000,0.000000,0.000000,0.000000,0.000000,0.000000,0.000000,0.000000,0.000000,0.000000,0.000000,0.000000,0.000000,0.000000,0.000000,0.000000,0.000000,7.000000,102.000000,1.000000
0.227379,0.212926,0.227379,0.184018,0.140657,0.140657,0.169564,0.169564,0.140657,0.097295,0.082842,0.082842,0.097295,0.126203,0.126203,0.068388,0.082842,0.082842,0.053934,0.068388,0.053934,0.010573,0.025026,0.010573,0.068388,0.068388,0.039480,0.025026,0.039480,0.039480,0.068388,0.053934,0.053934,0.025026,-0.018335,0.010573,0.039480,0.039480,0.025026,0.025026,-0.003881,0.039480,0.039480,0.039480,0.039480,0.010573,0.010573,0.010573,0.082842,0.053934,0.039480,-0.003881,-0.003881,-0.018335,0.039480,0.053934,0.025026,0.010573,-0.018335,-0.003881,0.039480,0.039480,0.039480,0.010573,-0.003881,0.025026,0.053934,0.025026,0.025026,-0.018335,-0.032789,0.010573,0.025026,0.025026,0.010573,-0.003881,-0.018335,-0.003881,0.053934,0.025026,0.010573,-0.018335,-0.032789,-0.032789,-0.003881,-0.018335,-0.003881,-0.003881,-0.047242,-0.032789,-0.003881,-0.018335,0.010573,-0.047242,-0.061696,-0.032789,-0.018335,-0.018335,-0.047242,-0.032789,-0.061696,-0.047242,-0.003881,-0.003881,-0.032789,-0.018335,-0.032789,-0.032789,0.053934,0.025026,-0.003881,-0.018335,-0.032789,-0.018335,0.025026,-0.003881,-0.018335,-0.032789,-0.018335,-0.018335,0.025026,0.039480,0.010573,-0.003881,0.025026,0.039480,0.068388,0.097295,0.039480,0.025026,-0.018335,0.068388,0.270741,0.574270,1.137968,2.207548,3.855279,5.271749,5.835447,5.878808,5.777632,5.315111,4.390069,3.060321,1.571581,-0.148419,-1.723881,-2.894637,-3.819680,-4.181024,-3.891948,-3.169259,-2.388755,-1.853965,-1.507074,-1.246906,-1.015646,-0.871108,-0.741024,-0.668755,-0.538671,-0.451948,-0.466402,-0.423041,-0.408587,-0.451948,-0.437495,-0.466402,-0.423041,-0.423041,-0.480856,-0.509763,-0.538671,-0.495310,-0.480856,-0.509763,-0.524217,-0.553125,-0.553125,-0.553125,-0.524217,-0.538671,-0.538671,-0.582032,-0.596486,-0.582032,-0.524217,-0.538671,-0.567579,-0.625394,-0.610940,-0.596486,-0.553125,-0.553125,-0.553125,-0.582032,-0.625394,-0.596486,-0.596486,-0.567579,-0.596486,-0.610940,-0.625394,-0.596486,-0.582032,-0.567579,-0.582032,-0.610940,-0.639848,-0.596486,-0.582032,-0.538671,-0.553125,-0.538671,-0.538671,-0.495310,-0.480856,-0.466402,-0.524217,-0.553125,-0.553125,-0.610940,-0.553125,-0.553125,-0.582032,-0.567579,-0.567579,-0.538671,-0.524217,-0.466402,-0.466402,-0.480856,-0.423041,-0.365226,-0.307411,-0.220688,-0.220688,-0.148419,-0.119511,-0.003881,0.097295,0.169564,0.198472,0.227379,0.227379,0.270741,0.299648,0.314102,0.343010,0.328556,0.285195,0.343010,0.386371,0.371917,0.400825,0.328556,0.357463,0.357463,0.429732,0.415279,0.415279,0.371917,0.357463,0.400825,0.400825,0.444186,0.415279,0.371917,0.371917,0.357463,0.415279,0.429732,0.400825,0.343010,0.343010,0.400825,0.371917,0.371917,0.371917,0.328556,0.299648,0.314102,0.328556,0.328556,0.314102,0.285195,0.270741,0.256287,0.285195,0.299648,0.256287,0.227379,0.184018,0.198472,0.212926,0.212926,0.184018,0.155110,0.155110,0.184018,0.198472,0.212926,0.169564,0.140657,0.126203,0.140657,0.169564,0.140657,0.155110,0.111749,0.111749,0.126203,0.126203,0.140657,0.126203,0.082842,0.111749,0.097295,0.111749,0.111749,0.140657,0.111749,0.082842,0.111749,0.000000,0.000000,0.000000,0.000000,0.000000,0.000000,0.000000,0.000000,0.000000,0.000000,0.000000,0.000000,0.000000,0.000000,0.000000,0.000000,0.000000,0.000000,0.000000,0.000000,0.000000,0.000000,0.000000,0.000000,0.000000,0.000000,0.000000,0.000000,0.000000,0.000000,0.000000,0.000000,0.000000,0.000000,0.000000,0.000000,0.000000,0.000000,0.000000,0.000000,0.000000,0.000000,0.000000,0.000000,0.000000,0.000000,0.000000,0.000000,0.000000,0.000000,0.000000,0.000000,0.000000,0.000000,0.000000,0.000000,0.000000,0.000000,0.000000,0.000000,0.000000,0.000000,0.000000,0.000000,0.000000,0.000000,0.000000,0.000000,0.000000,0.000000,0.000000,0.000000,0.000000,0.000000,0.000000,0.000000,0.000000,0.000000,0.000000,0.000000,0.000000,0.000000,0.000000,0.000000,0.000000,0.000000,0.000000,0.000000,0.000000,0.000000,0.000000,0.000000,0.000000,0.000000,0.000000,0.000000,0.000000,0.000000,0.000000,0.000000,0.000000,0.000000,0.000000,0.000000,0.000000,0.000000,7.000000,102.000000,1.000000
0.455485,0.471624,0.471624,0.390928,0.423207,0.374789,0.390928,0.374789,0.374789,0.374789,0.326371,0.310232,0.310232,0.342510,0.326371,0.294093,0.310232,0.294093,0.326371,0.374789,0.310232,0.294093,0.261814,0.310232,0.310232,0.326371,0.310232,0.277953,0.261814,0.261814,0.277953,0.342510,0.310232,0.245675,0.261814,0.229536,0.277953,0.310232,0.294093,0.245675,0.261814,0.197257,0.229536,0.294093,0.245675,0.261814,0.197257,0.213397,0.245675,0.261814,0.277953,0.261814,0.245675,0.245675,0.245675,0.245675,0.229536,0.197257,0.164979,0.197257,0.213397,0.229536,0.245675,0.197257,0.213397,0.181118,0.229536,0.213397,0.213397,0.229536,0.148840,0.148840,0.197257,0.181118,0.181118,0.132700,0.132700,0.100422,0.132700,0.197257,0.148840,0.164979,0.164979,0.164979,0.164979,0.181118,0.164979,0.181118,0.100422,0.148840,0.164979,0.148840,0.164979,0.132700,0.116561,0.116561,0.181118,0.164979,0.164979,0.116561,0.100422,0.084283,0.116561,0.132700,0.148840,0.148840,0.084283,0.084283,0.116561,0.148840,0.164979,0.148840,0.116561,0.100422,0.132700,0.164979,0.164979,0.181118,0.116561,0.100422,0.164979,0.148840,0.148840,0.148840,0.132700,0.148840,0.164979,0.197257,0.148840,0.197257,0.261814,0.487764,1.020358,1.633649,2.311497,3.005484,3.699471,4.296623,4.716243,4.716243,4.264344,3.392826,2.198522,0.810548,-0.625844,-1.933122,-3.079007,-4.015083,-4.596095,-4.531538,-3.789133,-2.885336,-2.320463,-2.013818,-1.852425,-1.658755,-1.416666,-1.222995,-1.126160,-1.029324,-0.900211,-0.867932,-0.787236,-0.771097,-0.738818,-0.754957,-0.771097,-0.754957,-0.722679,-0.674261,-0.674261,-0.706540,-0.738818,-0.771097,-0.738818,-0.738818,-0.738818,-0.722679,-0.787236,-0.771097,-0.819514,-0.754957,-0.819514,-0.851793,-0.851793,-0.835654,-0.835654,-0.819514,-0.803375,-0.835654,-0.884071,-0.884071,-0.851793,-0.819514,-0.851793,-0.884071,-0.900211,-0.964768,-0.916350,-0.867932,-0.884071,-0.900211,-0.980907,-0.964768,-0.964768,-0.932489,-0.932489,-0.964768,-0.997046,-0.997046,-0.932489,-0.948628,-0.964768,-0.964768,-1.013185,-1.045464,-1.013185,-1.013185,-0.964768,-0.964768,-0.997046,-0.932489,-0.884071,-0.851793,-0.835654,-0.835654,-0.835654,-0.819514,-0.754957,-0.641983,-0.625844,-0.561287,-0.561287,-0.496730,-0.399894,-0.335337,-0.286920,-0.254641,-0.222363,-0.157806,-0.109388,-0.012553,0.035865,0.100422,0.100422,0.132700,0.229536,0.294093,0.326371,0.326371,0.342510,0.358650,0.390928,0.423207,0.423207,0.407067,0.407067,0.439346,0.439346,0.471624,0.471624,0.471624,0.407067,0.471624,0.455485,0.503903,0.536181,0.503903,0.455485,0.503903,0.552320,0.552320,0.552320,0.552320,0.503903,0.536181,0.520042,0.568460,0.568460,0.568460,0.520042,0.503903,0.520042,0.552320,0.552320,0.552320,0.487764,0.520042,0.520042,0.568460,0.536181,0.520042,0.487764,0.487764,0.520042,0.568460,0.536181,0.503903,0.439346,0.423207,0.471624,0.520042,0.455485,0.487764,0.455485,0.439346,0.471624,0.471624,0.455485,0.455485,0.423207,0.407067,0.423207,0.503903,0.439346,0.407067,0.342510,0.374789,0.390928,0.439346,0.374789,0.390928,0.358650,0.342510,0.000000,0.000000,0.000000,0.000000,0.000000,0.000000,0.000000,0.000000,0.000000,0.000000,0.000000,0.000000,0.000000,0.000000,0.000000,0.000000,0.000000,0.000000,0.000000,0.000000,0.000000,0.000000,0.000000,0.000000,0.000000,0.000000,0.000000,0.000000,0.000000,0.000000,0.000000,0.000000,0.000000,0.000000,0.000000,0.000000,0.000000,0.000000,0.000000,0.000000,0.000000,0.000000,0.000000,0.000000,0.000000,0.000000,0.000000,0.000000,0.000000,0.000000,0.000000,0.000000,0.000000,0.000000,0.000000,0.000000,0.000000,0.000000,0.000000,0.000000,0.000000,0.000000,0.000000,0.000000,0.000000,0.000000,0.000000,0.000000,0.000000,0.000000,0.000000,0.000000,0.000000,0.000000,0.000000,0.000000,0.000000,0.000000,0.000000,0.000000,0.000000,0.000000,0.000000,0.000000,0.000000,0.000000,0.000000,0.000000,0.000000,0.000000,0.000000,0.000000,0.000000,0.000000,0.000000,0.000000,0.000000,0.000000,0.000000,0.000000,0.000000,0.000000,0.000000,0.000000,0.000000,0.000000,1.000000,102.000000,1.000000
0.304357,0.271001,0.287679,0.337712,0.337712,0.337712,0.321034,0.287679,0.271001,0.287679,0.387746,0.354390,0.321034,0.304357,0.304357,0.304357,0.304357,0.354390,0.304357,0.271001,0.254323,0.237645,0.337712,0.304357,0.287679,0.237645,0.271001,0.254323,0.321034,0.304357,0.287679,0.237645,0.220968,0.254323,0.271001,0.271001,0.237645,0.237645,0.254323,0.220968,0.304357,0.220968,0.204290,0.154256,0.154256,0.187612,0.204290,0.220968,0.187612,0.187612,0.204290,0.220968,0.220968,0.204290,0.204290,0.170934,0.187612,0.187612,0.220968,0.187612,0.137579,0.137579,0.154256,0.154256,0.187612,0.154256,0.170934,0.104223,0.104223,0.154256,0.137579,0.154256,0.137579,0.104223,0.120901,0.137579,0.187612,0.154256,0.154256,0.104223,0.087545,0.137579,0.170934,0.154256,0.137579,0.087545,0.087545,0.120901,0.154256,0.137579,0.087545,0.087545,0.104223,0.070867,0.120901,0.137579,0.070867,0.087545,0.054190,0.070867,0.104223,0.087545,0.120901,0.054190,0.037512,0.104223,0.137579,0.120901,0.070867,0.070867,0.070867,0.120901,0.104223,0.120901,0.104223,0.070867,0.104223,0.137579,0.154256,0.187612,0.120901,0.104223,0.104223,0.154256,0.204290,0.387746,0.704624,1.271669,2.072203,2.939449,3.773338,4.423772,4.824040,4.707295,4.106894,2.972804,1.521836,-0.162622,-1.847079,-3.181303,-4.215326,-4.849083,-4.799049,-4.048548,-3.147947,-2.497513,-2.130602,-1.830401,-1.580234,-1.380101,-1.213323,-1.129934,-0.979834,-0.863089,-0.746345,-0.746345,-0.729667,-0.746345,-0.746345,-0.679633,-0.646278,-0.679633,-0.729667,-0.712989,-0.679633,-0.696311,-0.696311,-0.712989,-0.729667,-0.729667,-0.779700,-0.696311,-0.746345,-0.712989,-0.712989,-0.796378,-0.796378,-0.746345,-0.746345,-0.763022,-0.763022,-0.829734,-0.829734,-0.779700,-0.763022,-0.829734,-0.813056,-0.846411,-0.863089,-0.829734,-0.779700,-0.829734,-0.863089,-0.863089,-0.913123,-0.896445,-0.879767,-0.863089,-0.913123,-0.963156,-0.979834,-0.946478,-0.913123,-0.913123,-0.979834,-0.979834,-1.029867,-0.963156,-0.879767,-0.896445,-0.896445,-0.863089,-0.863089,-0.779700,-0.729667,-0.763022,-0.696311,-0.712989,-0.679633,-0.596244,-0.529533,-0.429466,-0.379433,-0.329400,-0.329400,-0.229333,-0.179299,-0.162622,-0.112588,-0.079233,-0.029199,0.054190,0.170934,0.154256,0.170934,0.204290,0.254323,0.337712,0.437779,0.387746,0.371068,0.387746,0.404423,0.437779,0.487812,0.487812,0.437779,0.404423,0.421101,0.454457,0.487812,0.487812,0.504490,0.471135,0.471135,0.554524,0.554524,0.554524,0.537846,0.521168,0.537846,0.554524,0.621235,0.587879,0.521168,0.521168,0.521168,0.537846,0.587879,0.571201,0.554524,0.521168,0.521168,0.571201,0.604557,0.604557,0.537846,0.521168,0.504490,0.537846,0.537846,0.554524,0.521168,0.504490,0.487812,0.487812,0.521168,0.521168,0.504490,0.471135,0.421101,0.471135,0.504490,0.454457,0.471135,0.437779,0.421101,0.437779,0.471135,0.437779,0.404423,0.387746,0.371068,0.404423,0.454457,0.421101,0.371068,0.354390,0.354390,0.337712,0.321034,0.354390,0.371068,0.304357,0.254323,0.321034,0.354390,0.000000,0.000000,0.000000,0.000000,0.000000,0.000000,0.000000,0.000000,0.000000,0.000000,0.000000,0.000000,0.000000,0.000000,0.000000,0.000000,0.000000,0.000000,0.000000,0.000000,0.000000,0.000000,0.000000,0.000000,0.000000,0.000000,0.000000,0.000000,0.000000,0.000000,0.000000,0.000000,0.000000,0.000000,0.000000,0.000000,0.000000,0.000000,0.000000,0.000000,0.000000,0.000000,0.000000,0.000000,0.000000,0.000000,0.000000,0.000000,0.000000,0.000000,0.000000,0.000000,0.000000,0.000000,0.000000,0.000000,0.000000,0.000000,0.000000,0.000000,0.000000,0.000000,0.000000,0.000000,0.000000,0.000000,0.000000,0.000000,0.000000,0.000000,0.000000,0.000000,0.000000,0.000000,0.000000,0.000000,0.000000,0.000000,0.000000,0.000000,0.000000,0.000000,0.000000,0.000000,0.000000,0.000000,0.000000,0.000000,0.000000,0.000000,0.000000,0.000000,0.000000,0.000000,0.000000,0.000000,0.000000,0.000000,0.000000,0.000000,0.000000,0.000000,0.000000,0.000000,0.000000,0.000000,0.000000,0.000000,0.000000,0.000000,0.000000,0.000000,0.000000,1.000000,102.000000,1.000000
0.406920,0.390718,0.406920,0.342114,0.309710,0.342114,0.423121,0.439323,0.423121,0.390718,0.358315,0.358315,0.374517,0.358315,0.374517,0.390718,0.342114,0.374517,0.406920,0.390718,0.390718,0.374517,0.358315,0.358315,0.406920,0.406920,0.390718,0.374517,0.325912,0.374517,0.423121,0.423121,0.406920,0.342114,0.325912,0.342114,0.390718,0.406920,0.342114,0.325912,0.325912,0.309710,0.358315,0.325912,0.309710,0.261106,0.261106,0.228703,0.277307,0.261106,0.228703,0.196299,0.196299,0.196299,0.244904,0.261106,0.244904,0.212501,0.163896,0.196299,0.228703,0.212501,0.212501,0.163896,0.163896,0.180098,0.196299,0.212501,0.131493,0.131493,0.099090,0.115292,0.147695,0.115292,0.180098,0.131493,0.082888,0.099090,0.147695,0.147695,0.115292,0.131493,0.082888,0.082888,0.082888,0.115292,0.099090,0.082888,0.082888,0.066687,0.066687,0.115292,0.131493,0.050485,0.050485,0.082888,0.082888,0.115292,0.115292,0.050485,0.050485,0.066687,0.115292,0.082888,0.099090,0.050485,0.001881,0.050485,0.082888,0.082888,0.082888,0.050485,-0.014321,0.018082,0.082888,0.066687,0.082888,0.018082,0.018082,0.034284,0.050485,0.066687,0.034284,0.050485,-0.014321,0.034284,0.066687,0.082888,0.066687,0.050485,0.001881,0.050485,0.082888,0.050485,0.050485,0.050485,0.050485,0.050485,0.082888,0.115292,0.066687,0.050485,0.034284,0.244904,0.714750,1.379014,2.189093,3.031574,3.776846,4.489716,4.943359,4.943359,4.343901,3.209791,1.638239,-0.192538,-1.990913,-3.481457,-4.583164,-5.231227,-5.036808,-4.129520,-3.108821,-2.476960,-2.104324,-1.861300,-1.634478,-1.407656,-1.213237,-1.035020,-0.921609,-0.905407,-0.921609,-0.808198,-0.775795,-0.775795,-0.710989,-0.743392,-0.727190,-0.743392,-0.710989,-0.727190,-0.710989,-0.759593,-0.759593,-0.759593,-0.727190,-0.727190,-0.743392,-0.775795,-0.791996,-0.759593,-0.775795,-0.710989,-0.743392,-0.759593,-0.775795,-0.775795,-0.743392,-0.743392,-0.759593,-0.775795,-0.775795,-0.791996,-0.727190,-0.759593,-0.791996,-0.791996,-0.808198,-0.824400,-0.808198,-0.824400,-0.824400,-0.856803,-0.905407,-0.921609,-0.840601,-0.840601,-0.889206,-0.937811,-0.937811,-0.921609,-0.937811,-0.905407,-0.954012,-0.986415,-0.986415,-0.970214,-0.889206,-0.873004,-0.840601,-0.840601,-0.808198,-0.727190,-0.646182,-0.613779,-0.565174,-0.516570,-0.484167,-0.451763,-0.338352,-0.289748,-0.208740,-0.176337,-0.127732,-0.095329,-0.014321,0.001881,0.050485,0.050485,0.018082,0.082888,0.163896,0.180098,0.228703,0.212501,0.277307,0.309710,0.374517,0.406920,0.390718,0.358315,0.358315,0.358315,0.423121,0.390718,0.406920,0.358315,0.374517,0.406920,0.390718,0.439323,0.439323,0.423121,0.390718,0.439323,0.439323,0.455525,0.390718,0.390718,0.406920,0.439323,0.439323,0.471726,0.423121,0.406920,0.406920,0.423121,0.471726,0.504129,0.439323,0.423121,0.423121,0.455525,0.487928,0.471726,0.487928,0.423121,0.423121,0.423121,0.455525,0.504129,0.455525,0.471726,0.439323,0.455525,0.504129,0.471726,0.487928,0.455525,0.423121,0.439323,0.487928,0.471726,0.439323,0.390718,0.374517,0.390718,0.406920,0.423121,0.423121,0.374517,0.342114,0.342114,0.406920,0.390718,0.390718,0.325912,0.309710,0.309710,0.374517,0.374517,0.342114,0.325912,0.277307,0.261106,0.000000,0.000000,0.000000,0.000000,0.000000,0.000000,0.000000,0.000000,0.000000,0.000000,0.000000,0.000000,0.000000,0.000000,0.000000,0.000000,0.000000,0.000000,0.000000,0.000000,0.000000,0.000000,0.000000,0.000000,0.000000,0.000000,0.000000,0.000000,0.000000,0.000000,0.000000,0.000000,0.000000,0.000000,0.000000,0.000000,0.000000,0.000000,0.000000,0.000000,0.000000,0.000000,0.000000,0.000000,0.000000,0.000000,0.000000,0.000000,0.000000,0.000000,0.000000,0.000000,0.000000,0.000000,0.000000,0.000000,0.000000,0.000000,0.000000,0.000000,0.000000,0.000000,0.000000,0.000000,0.000000,0.000000,0.000000,0.000000,0.000000,0.000000,0.000000,0.000000,0.000000,0.000000,0.000000,0.000000,0.000000,0.000000,0.000000,0.000000,0.000000,0.000000,0.000000,0.000000,0.000000,0.000000,0.000000,0.000000,0.000000,0.000000,0.000000,0.000000,0.000000,0.000000,1.000000,102.000000,1.000000
0.440954,0.395405,0.440954,0.486503,0.456137,0.471320,0.425771,0.380222,0.440954,0.456137,0.456137,0.425771,0.395405,0.395405,0.380222,0.380222,0.440954,0.395405,0.365039,0.334673,0.380222,0.349856,0.380222,0.380222,0.289125,0.349856,0.273942,0.319490,0.304308,0.319490,0.289125,0.289125,0.289125,0.304308,0.289125,0.243576,0.213210,0.198027,0.228393,0.273942,0.243576,0.258759,0.198027,0.182844,0.198027,0.243576,0.213210,0.198027,0.167661,0.137296,0.152478,0.167661,0.167661,0.167661,0.122113,0.137296,0.152478,0.122113,0.198027,0.167661,0.152478,0.106930,0.122113,0.152478,0.137296,0.137296,0.122113,0.091747,0.122113,0.152478,0.137296,0.122113,0.106930,0.046198,0.091747,0.106930,0.122113,0.152478,0.091747,0.046198,0.076564,0.122113,0.122113,0.061381,0.031015,0.046198,0.091747,0.137296,0.091747,0.076564,0.061381,0.015832,0.061381,0.061381,0.091747,0.076564,0.091747,0.031015,0.046198,0.061381,0.091747,0.061381,0.046198,0.061381,0.046198,0.091747,0.106930,0.106930,0.091747,0.046198,0.031015,0.061381,0.213210,0.607966,1.291197,2.202172,3.173878,3.963390,4.525158,4.692170,4.267048,3.143513,1.503758,-0.272643,-2.003495,-3.476238,-4.630140,-5.298188,-5.252639,-4.463128,-3.400324,-2.625995,-2.170508,-1.912398,-1.608740,-1.335447,-1.138069,-0.955874,-0.925509,-0.879960,-0.834411,-0.758496,-0.743314,-0.712948,-0.712948,-0.743314,-0.697765,-0.652216,-0.652216,-0.621850,-0.667399,-0.697765,-0.667399,-0.621850,-0.637033,-0.667399,-0.667399,-0.697765,-0.637033,-0.606667,-0.606667,-0.606667,-0.667399,-0.652216,-0.621850,-0.606667,-0.606667,-0.606667,-0.637033,-0.637033,-0.621850,-0.591484,-0.591484,-0.621850,-0.682582,-0.667399,-0.652216,-0.637033,-0.652216,-0.667399,-0.697765,-0.682582,-0.697765,-0.637033,-0.682582,-0.682582,-0.743314,-0.712948,-0.743314,-0.697765,-0.667399,-0.697765,-0.712948,-0.758496,-0.697765,-0.621850,-0.637033,-0.652216,-0.637033,-0.621850,-0.606667,-0.561119,-0.561119,-0.485204,-0.530753,-0.454838,-0.394107,-0.333375,-0.272643,-0.242277,-0.211912,-0.196729,-0.120814,-0.075265,0.000649,0.015832,0.061381,0.076564,0.137296,0.258759,0.304308,0.334673,0.319490,0.319490,0.334673,0.380222,0.410588,0.395405,0.365039,0.349856,0.380222,0.425771,0.425771,0.395405,0.395405,0.395405,0.410588,0.440954,0.410588,0.410588,0.380222,0.380222,0.395405,0.395405,0.395405,0.410588,0.395405,0.365039,0.395405,0.440954,0.410588,0.410588,0.365039,0.365039,0.380222,0.425771,0.395405,0.410588,0.365039,0.380222,0.380222,0.395405,0.440954,0.410588,0.380222,0.425771,0.440954,0.456137,0.440954,0.425771,0.425771,0.425771,0.440954,0.547234,0.501685,0.486503,0.471320,0.456137,0.486503,0.486503,0.501685,0.486503,0.456137,0.440954,0.456137,0.501685,0.501685,0.471320,0.440954,0.440954,0.440954,0.440954,0.471320,0.456137,0.395405,0.410588,0.410588,0.440954,0.395405,0.380222,0.349856,0.319490,0.349856,0.380222,0.000000,0.000000,0.000000,0.000000,0.000000,0.000000,0.000000,0.000000,0.000000,0.000000,0.000000,0.000000,0.000000,0.000000,0.000000,0.000000,0.000000,0.000000,0.000000,0.000000,0.000000,0.000000,0.000000,0.000000,0.000000,0.000000,0.000000,0.000000,0.000000,0.000000,0.000000,0.000000,0.000000,0.000000,0.000000,0.000000,0.000000,0.000000,0.000000,0.000000,0.000000,0.000000,0.000000,0.000000,0.000000,0.000000,0.000000,0.000000,0.000000,0.000000,0.000000,0.000000,0.000000,0.000000,0.000000,0.000000,0.000000,0.000000,0.000000,0.000000,0.000000,0.000000,0.000000,0.000000,0.000000,0.000000,0.000000,0.000000,0.000000,0.000000,0.000000,0.000000,0.000000,0.000000,0.000000,0.000000,0.000000,0.000000,0.000000,0.000000,0.000000,0.000000,0.000000,0.000000,0.000000,0.000000,0.000000,0.000000,0.000000,0.000000,0.000000,0.000000,0.000000,0.000000,0.000000,0.000000,0.000000,0.000000,0.000000,0.000000,0.000000,0.000000,0.000000,0.000000,0.000000,0.000000,0.000000,0.000000,0.000000,0.000000,0.000000,0.000000,0.000000,0.000000,0.000000,0.000000,0.000000,0.000000,0.000000,0.000000,0.000000,0.000000,0.000000,0.000000,0.000000,0.000000,1.000000,102.000000,1.000000
0.360893,0.360893,0.360893,0.376294,0.484096,0.437895,0.422495,0.407094,0.391694,0.422495,0.422495,0.437895,0.422495,0.391694,0.376294,0.391694,0.437895,0.437895,0.407094,0.376294,0.376294,0.376294,0.376294,0.407094,0.391694,0.330093,0.345493,0.345493,0.376294,0.330093,0.314692,0.283891,0.253091,0.283891,0.314692,0.360893,0.299292,0.268491,0.237690,0.268491,0.283891,0.283891,0.237690,0.206890,0.206890,0.222290,0.268491,0.253091,0.253091,0.191489,0.191489,0.206890,0.222290,0.206890,0.237690,0.176089,0.129888,0.160689,0.191489,0.160689,0.176089,0.129888,0.145288,0.160689,0.176089,0.176089,0.145288,0.129888,0.114488,0.099087,0.160689,0.176089,0.114488,0.099087,0.068286,0.099087,0.129888,0.145288,0.114488,0.099087,0.068286,0.068286,0.129888,0.129888,0.083687,0.068286,0.037486,0.068286,0.099087,0.068286,0.052886,0.037486,0.068286,0.052886,0.083687,0.083687,0.068286,0.037486,0.068286,0.068286,0.114488,0.083687,0.083687,0.052886,0.068286,0.083687,0.083687,0.145288,0.083687,0.083687,0.022085,0.099087,0.145288,0.145288,0.114488,0.068286,0.068286,0.099087,0.268491,0.591899,1.177112,1.854728,2.732548,3.548767,4.210982,4.595991,4.749995,4.472788,3.533367,2.116534,0.376294,-1.471749,-3.042585,-4.259214,-5.029231,-5.044632,-4.290014,-3.258190,-2.472772,-2.087763,-1.841358,-1.594952,-1.333146,-1.148342,-1.025139,-0.901936,-0.871135,-0.794133,-0.763333,-0.717132,-0.732532,-0.717132,-0.701731,-0.686331,-0.609329,-0.624730,-0.655530,-0.655530,-0.686331,-0.670931,-0.640130,-0.655530,-0.640130,-0.747932,-0.701731,-0.686331,-0.640130,-0.655530,-0.670931,-0.670931,-0.686331,-0.670931,-0.655530,-0.655530,-0.670931,-0.701731,-0.717132,-0.701731,-0.686331,-0.717132,-0.701731,-0.778733,-0.794133,-0.747932,-0.732532,-0.732532,-0.747932,-0.778733,-0.794133,-0.794133,-0.794133,-0.794133,-0.824934,-0.871135,-0.917336,-0.886536,-0.840335,-0.871135,-0.886536,-0.948137,-0.932737,-0.886536,-0.824934,-0.824934,-0.824934,-0.809534,-0.763333,-0.717132,-0.624730,-0.609329,-0.563128,-0.563128,-0.532327,-0.455326,-0.393724,-0.332123,-0.285922,-0.239721,-0.224320,-0.147319,-0.116518,-0.070317,-0.024116,-0.008715,0.006685,0.052886,0.114488,0.129888,0.129888,0.145288,0.191489,0.253091,0.360893,0.376294,0.330093,0.314692,0.299292,0.314692,0.376294,0.345493,0.376294,0.314692,0.314692,0.376294,0.376294,0.376294,0.360893,0.391694,0.345493,0.376294,0.391694,0.422495,0.407094,0.391694,0.407094,0.376294,0.407094,0.422495,0.407094,0.376294,0.391694,0.360893,0.407094,0.422495,0.422495,0.376294,0.376294,0.376294,0.437895,0.468696,0.422495,0.376294,0.376294,0.407094,0.453295,0.453295,0.437895,0.422495,0.376294,0.422495,0.468696,0.468696,0.437895,0.422495,0.376294,0.407094,0.453295,0.453295,0.453295,0.422495,0.376294,0.407094,0.422495,0.453295,0.407094,0.376294,0.330093,0.376294,0.391694,0.376294,0.360893,0.314692,0.314692,0.314692,0.391694,0.330093,0.330093,0.283891,0.268491,0.299292,0.299292,0.000000,0.000000,0.000000,0.000000,0.000000,0.000000,0.000000,0.000000,0.000000,0.000000,0.000000,0.000000,0.000000,0.000000,0.000000,0.000000,0.000000,0.000000,0.000000,0.000000,0.000000,0.000000,0.000000,0.000000,0.000000,0.000000,0.000000,0.000000,0.000000,0.000000,0.000000,0.000000,0.000000,0.000000,0.000000,0.000000,0.000000,0.000000,0.000000,0.000000,0.000000,0.000000,0.000000,0.000000,0.000000,0.000000,0.000000,0.000000,0.000000,0.000000,0.000000,0.000000,0.000000,0.000000,0.000000,0.000000,0.000000,0.000000,0.000000,0.000000,0.000000,0.000000,0.000000,0.000000,0.000000,0.000000,0.000000,0.000000,0.000000,0.000000,0.000000,0.000000,0.000000,0.000000,0.000000,0.000000,0.000000,0.000000,0.000000,0.000000,0.000000,0.000000,0.000000,0.000000,0.000000,0.000000,0.000000,0.000000,0.000000,0.000000,0.000000,0.000000,0.000000,0.000000,0.000000,0.000000,0.000000,0.000000,0.000000,0.000000,0.000000,0.000000,0.000000,0.000000,0.000000,0.000000,0.000000,0.000000,0.000000,0.000000,0.000000,0.000000,0.000000,0.000000,0.000000,0.000000,0.000000,0.000000,0.000000,1.000000,102.000000,1.000000
0.231352,0.257116,0.257116,0.231352,0.231352,0.205587,0.205587,0.205587,0.218470,0.231352,0.244234,0.244234,0.282880,0.302203,0.308645,0.289321,0.244234,0.237793,0.269998,0.360173,0.501877,0.662904,0.849695,1.017163,1.216836,1.435832,1.699917,1.944677,2.195879,2.447081,2.724047,3.001013,3.181364,3.265097,3.284421,3.277980,3.277980,3.245774,3.078306,2.711165,2.202320,1.654829,1.107338,0.675786,0.469671,0.373055,0.315086,0.231352,0.160500,0.121853,0.083207,0.005914,-0.071379,-0.155113,-0.225965,-0.271052,-0.283934,-0.303257,-0.329022,-0.380550,-0.425638,-0.457843,-0.477166,-0.515813,-0.554459,-0.605988,-0.612429,-0.638193,-0.663958,-0.689722,-0.696163,-0.754133,-0.754133,-0.779897,-0.799220,-0.824984,-0.837867,-0.870072,-0.889395,-0.915159,-0.928042,-0.934483,-0.973129,-1.005335,-1.018217,-1.031099,-1.031099,-1.069745,-1.082627,-1.114833,-1.140597,-1.153479,-1.179244,-1.192126,-1.217890,-1.250095,-1.275860,-1.275860,-1.295183,-1.301624,-1.340270,-1.372476,-1.385358,-1.398240,-1.391799,-1.411122,-1.424004,-1.436886,-1.436886,-1.443328,-1.411122,-1.424004,-1.424004,-1.424004,-1.404681,-1.359594,-1.333829,-1.301624,-1.275860,-1.250095,-1.185685,-1.121274,-1.050422,-0.986011,-0.934483,-0.863631,-0.786338,-0.715486,-0.638193,-0.567342,-0.509372,-0.444961,-0.399874,-0.316140,-0.238847,-0.187318,-0.135790,-0.116466,-0.077820,-0.019850,0.018796,0.044561,0.063884,0.070325,0.102530,0.108971,0.134736,0.154059,0.160500,0.154059,0.160500,0.192705,0.199146,0.212028,0.212028,0.205587,0.218470,0.218470,0.250675,0.244234,0.244234,0.231352,0.250675,0.257116,0.257116,0.257116,0.263557,0.269998,0.257116,0.276439,0.295762,0.282880,0.276439,0.282880,0.276439,0.302203,0.295762,0.295762,0.289321,0.282880,0.263557,0.295762,0.282880,0.302203,0.282880,0.276439,0.276439,0.295762,0.308645,0.302203,0.276439,0.269998,0.276439,0.282880,0.289321,0.282880,0.269998,0.250675,0.250675,0.276439,0.282880,0.276439,0.257116,0.257116,0.250675,0.250675,0.282880,0.276439,0.276439,0.263557,0.263557,0.282880,0.289321,0.276439,0.289321,0.269998,0.269998,0.282880,0.315086,0.321527,0.000000,0.000000,0.000000,0.000000,0.000000,0.000000,0.000000,0.000000,0.000000,0.000000,0.000000,0.000000,0.000000,0.000000,0.000000,0.000000,0.000000,0.000000,0.000000,0.000000,0.000000,0.000000,0.000000,0.000000,0.000000,0.000000,0.000000,0.000000,0.000000,0.000000,0.000000,0.000000,0.000000,0.000000,0.000000,0.000000,0.000000,0.000000,0.000000,0.000000,0.000000,0.000000,0.000000,0.000000,0.000000,0.000000,0.000000,0.000000,0.000000,0.000000,0.000000,0.000000,0.000000,0.000000,0.000000,0.000000,0.000000,0.000000,0.000000,0.000000,0.000000,0.000000,0.000000,0.000000,0.000000,0.000000,0.000000,0.000000,0.000000,0.000000,0.000000,0.000000,0.000000,0.000000,0.000000,0.000000,0.000000,0.000000,0.000000,0.000000,0.000000,0.000000,0.000000,0.000000,0.000000,0.000000,0.000000,0.000000,0.000000,0.000000,0.000000,0.000000,0.000000,0.000000,0.000000,0.000000,0.000000,0.000000,0.000000,0.000000,0.000000,0.000000,0.000000,0.000000,0.000000,0.000000,0.000000,0.000000,0.000000,0.000000,0.000000,0.000000,0.000000,0.000000,0.000000,0.000000,0.000000,0.000000,0.000000,0.000000,0.000000,0.000000,0.000000,0.000000,0.000000,0.000000,0.000000,0.000000,0.000000,0.000000,0.000000,0.000000,0.000000,0.000000,0.000000,0.000000,0.000000,0.000000,0.000000,0.000000,0.000000,0.000000,0.000000,0.000000,0.000000,0.000000,0.000000,0.000000,0.000000,0.000000,0.000000,0.000000,0.000000,0.000000,0.000000,0.000000,0.000000,0.000000,0.000000,0.000000,0.000000,0.000000,0.000000,0.000000,0.000000,0.000000,0.000000,0.000000,0.000000,0.000000,0.000000,0.000000,0.000000,0.000000,0.000000,0.000000,0.000000,0.000000,0.000000,0.000000,0.000000,0.000000,0.000000,0.000000,0.000000,0.000000,0.000000,0.000000,0.000000,0.000000,0.000000,0.000000,0.000000,0.000000,0.000000,0.000000,0.000000,0.000000,0.000000,0.000000,0.000000,0.000000,0.000000,0.000000,0.000000,0.000000,0.000000,0.000000,0.000000,0.000000,5.000000,102.000000,1.000000
0.022424,0.047280,0.047280,0.022424,0.022424,-0.002433,0.022424,0.034852,0.034852,0.034852,0.022424,-0.002433,0.009996,0.022424,0.034852,0.009996,-0.014861,-0.064573,-0.052145,-0.027289,-0.027289,-0.014861,-0.064573,-0.039717,-0.052145,-0.039717,-0.027289,-0.027289,-0.052145,-0.064573,-0.039717,-0.014861,-0.014861,-0.039717,-0.077002,-0.101858,-0.089430,-0.052145,-0.039717,-0.064573,-0.077002,-0.101858,-0.089430,-0.027289,-0.027289,-0.052145,-0.077002,-0.089430,-0.077002,-0.039717,-0.027289,-0.052145,-0.101858,-0.077002,-0.077002,-0.039717,-0.064573,-0.064573,-0.089430,-0.114286,-0.089430,-0.077002,-0.064573,-0.077002,-0.101858,-0.089430,-0.064573,-0.077002,-0.064573,-0.089430,-0.077002,-0.101858,-0.064573,-0.027289,-0.064573,-0.064573,-0.077002,-0.064573,-0.039717,-0.039717,-0.014861,-0.002433,-0.014861,0.059708,0.183990,0.531979,1.352238,2.396204,2.756621,2.222210,1.526232,1.203100,1.041534,0.892396,0.705973,0.482266,0.270987,-0.014861,-0.400134,-0.772979,-1.120968,-1.344675,-1.431672,-1.344675,-1.009114,-0.723266,-0.574128,-0.673554,-1.158252,-1.978512,-2.873340,-3.743312,-4.414433,-5.010985,-5.408686,-5.408686,-5.172551,-4.662996,-3.954591,-3.097047,-2.239503,-1.605666,-1.232821,-0.996686,-0.835120,-0.685982,-0.487131,-0.350421,-0.250996,-0.188855,-0.176427,-0.126714,-0.077002,-0.014861,-0.014861,0.022424,0.009996,0.034852,0.096993,0.109421,0.109421,0.121849,0.109421,0.146705,0.146705,0.196418,0.221274,0.221274,0.196418,0.221274,0.270987,0.320700,0.320700,0.333128,0.333128,0.333128,0.370413,0.395269,0.432553,0.432553,0.432553,0.469838,0.469838,0.519551,0.507122,0.569263,0.544407,0.569263,0.581691,0.631404,0.643832,0.656260,0.656260,0.618976,0.668689,0.705973,0.730829,0.755686,0.755686,0.768114,0.842683,0.879967,0.892396,0.904824,0.867539,0.855111,0.879967,0.892396,0.842683,0.817827,0.768114,0.755686,0.743258,0.730829,0.718401,0.643832,0.631404,0.581691,0.544407,0.581691,0.519551,0.531979,0.469838,0.432553,0.469838,0.519551,0.519551,0.482266,0.432553,0.420125,0.395269,0.407697,0.370413,0.370413,0.333128,0.333128,0.333128,0.370413,0.345556,0.308272,0.258559,0.258559,0.308272,0.333128,0.295844,0.283415,0.270987,0.258559,0.270987,0.320700,0.283415,0.258559,0.233703,0.246131,0.258559,0.246131,0.258559,0.270987,0.270987,0.233703,0.246131,0.270987,0.233703,0.233703,0.221274,0.196418,0.208846,0.221274,0.246131,0.208846,0.196418,0.183990,0.196418,0.196418,0.221274,0.196418,0.183990,0.159134,0.171562,0.196418,0.196418,0.159134,0.134277,0.121849,0.146705,0.121849,0.146705,0.134277,0.084565,0.121849,0.121849,0.134277,0.121849,0.109421,0.084565,0.072136,0.072136,0.096993,0.084565,0.072136,0.034852,0.000000,0.000000,0.000000,0.000000,0.000000,0.000000,0.000000,0.000000,0.000000,0.000000,0.000000,0.000000,0.000000,0.000000,0.000000,0.000000,0.000000,0.000000,0.000000,0.000000,0.000000,0.000000,0.000000,0.000000,0.000000,0.000000,0.000000,0.000000,0.000000,0.000000,0.000000,0.000000,0.000000,0.000000,0.000000,0.000000,0.000000,0.000000,0.000000,0.000000,0.000000,0.000000,0.000000,0.000000,0.000000,0.000000,0.000000,0.000000,0.000000,0.000000,0.000000,0.000000,0.000000,0.000000,0.000000,0.000000,0.000000,0.000000,0.000000,0.000000,0.000000,0.000000,0.000000,0.000000,0.000000,0.000000,0.000000,0.000000,0.000000,0.000000,0.000000,0.000000,0.000000,0.000000,0.000000,0.000000,0.000000,0.000000,0.000000,0.000000,0.000000,0.000000,0.000000,0.000000,0.000000,0.000000,0.000000,0.000000,0.000000,0.000000,0.000000,0.000000,0.000000,0.000000,0.000000,0.000000,0.000000,0.000000,0.000000,0.000000,0.000000,0.000000,0.000000,0.000000,0.000000,0.000000,0.000000,0.000000,0.000000,0.000000,0.000000,0.000000,0.000000,0.000000,0.000000,0.000000,0.000000,0.000000,0.000000,0.000000,0.000000,0.000000,0.000000,0.000000,0.000000,0.000000,0.000000,0.000000,0.000000,0.000000,0.000000,0.000000,0.000000,0.000000,0.000000,0.000000,0.000000,0.000000,0.000000,0.000000,0.000000,0.000000,0.000000,0.000000,0.000000,0.000000,0.000000,0.000000,0.000000,7.000000,102.000000,1.000000
0.188478,0.174876,0.147671,0.188478,0.229285,0.229285,0.188478,0.147671,0.134069,0.147671,0.147671,0.147671,0.147671,0.106864,0.093262,0.134069,0.161274,0.174876,0.120466,0.079659,0.079659,0.106864,0.120466,0.120466,0.106864,0.052455,0.066057,0.079659,0.106864,0.106864,0.106864,0.038852,0.025250,0.038852,0.066057,0.079659,0.052455,0.025250,-0.001955,0.052455,0.038852,0.052455,0.025250,0.025250,-0.001955,0.052455,0.038852,0.052455,0.025250,-0.001955,-0.015557,-0.042762,0.038852,0.052455,0.025250,-0.015557,-0.056364,-0.001955,-0.001955,0.025250,0.011648,-0.029160,-0.056364,-0.015557,0.025250,0.052455,-0.001955,-0.015557,-0.029160,-0.001955,0.025250,0.011648,-0.029160,-0.042762,-0.056364,-0.042762,-0.015557,0.011648,0.025250,-0.042762,-0.056364,-0.001955,0.011648,0.011648,-0.001955,-0.056364,-0.056364,-0.029160,-0.015557,-0.001955,-0.001955,-0.042762,-0.056364,-0.015557,-0.001955,-0.015557,-0.015557,-0.042762,-0.069967,-0.015557,-0.001955,0.011648,0.011648,-0.069967,-0.056364,-0.029160,-0.015557,-0.029160,-0.056364,-0.056364,-0.056364,-0.029160,0.011648,-0.015557,-0.015557,-0.056364,-0.042762,-0.042762,-0.029160,0.011648,-0.001955,-0.056364,-0.042762,-0.042762,-0.001955,-0.015557,-0.015557,-0.015557,-0.001955,-0.015557,0.038852,0.038852,0.038852,0.038852,0.052455,0.093262,0.174876,0.229285,0.283695,0.528538,1.317475,2.555290,3.453047,3.534661,3.344228,3.493854,3.969937,4.500429,4.867693,5.044524,4.949307,4.364405,3.235409,1.875172,0.419719,-1.049337,-2.355165,-3.429752,-4.123472,-4.381917,-4.082665,-3.334535,-2.504791,-1.947093,-1.593432,-1.307782,-1.076542,-0.954121,-0.790892,-0.654869,-0.600459,-0.505242,-0.450833,-0.423628,-0.450833,-0.478038,-0.491640,-0.450833,-0.410026,-0.437231,-0.478038,-0.478038,-0.478038,-0.478038,-0.450833,-0.464435,-0.478038,-0.518845,-0.532447,-0.546050,-0.491640,-0.546050,-0.559652,-0.586857,-0.614061,-0.586857,-0.546050,-0.546050,-0.573254,-0.614061,-0.627664,-0.627664,-0.600459,-0.641266,-0.641266,-0.668471,-0.682073,-0.682073,-0.668471,-0.682073,-0.722880,-0.709278,-0.790892,-0.736483,-0.736483,-0.736483,-0.763687,-0.777290,-0.818097,-0.777290,-0.777290,-0.777290,-0.790892,-0.872506,-0.845302,-0.804495,-0.818097,-0.804495,-0.763687,-0.777290,-0.750085,-0.695676,-0.641266,-0.586857,-0.532447,-0.546050,-0.491640,-0.423628,-0.382821,-0.342014,-0.301207,-0.314809,-0.274002,-0.205990,-0.137979,-0.110774,-0.097171,-0.069967,-0.029160,0.025250,0.052455,0.079659,0.066057,0.079659,0.093262,0.106864,0.174876,0.188478,0.215683,0.242888,0.256490,0.256490,0.310900,0.283695,0.310900,0.297297,0.297297,0.297297,0.324502,0.338104,0.324502,0.297297,0.283695,0.324502,0.351707,0.351707,0.351707,0.324502,0.297297,0.310900,0.338104,0.392514,0.324502,0.310900,0.297297,0.310900,0.338104,0.338104,0.351707,0.338104,0.324502,0.351707,0.378911,0.324502,0.310900,0.297297,0.283695,0.297297,0.338104,0.324502,0.283695,0.297297,0.283695,0.283695,0.310900,0.324502,0.297297,0.256490,0.242888,0.242888,0.283695,0.283695,0.242888,0.215683,0.215683,0.242888,0.256490,0.256490,0.229285,0.188478,0.202081,0.202081,0.297297,0.242888,0.188478,0.188478,0.174876,0.174876,0.229285,0.202081,0.174876,0.134069,0.174876,0.174876,0.000000,0.000000,0.000000,0.000000,0.000000,0.000000,0.000000,0.000000,0.000000,0.000000,0.000000,0.000000,0.000000,0.000000,0.000000,0.000000,0.000000,0.000000,0.000000,0.000000,0.000000,0.000000,0.000000,0.000000,0.000000,0.000000,0.000000,0.000000,0.000000,0.000000,0.000000,0.000000,0.000000,0.000000,0.000000,0.000000,0.000000,0.000000,0.000000,0.000000,0.000000,0.000000,0.000000,0.000000,0.000000,0.000000,0.000000,0.000000,0.000000,0.000000,0.000000,0.000000,0.000000,0.000000,0.000000,0.000000,0.000000,0.000000,0.000000,0.000000,0.000000,0.000000,0.000000,0.000000,0.000000,0.000000,0.000000,0.000000,0.000000,0.000000,0.000000,0.000000,0.000000,0.000000,0.000000,0.000000,0.000000,0.000000,0.000000,0.000000,0.000000,0.000000,0.000000,0.000000,0.000000,0.000000,0.000000,0.000000,0.000000,0.000000,0.000000,0.000000,0.000000,0.000000,0.000000,0.000000,7.000000,102.000000,1.000000
0.267640,0.225128,0.239299,0.225128,0.225128,0.253469,0.267640,0.239299,0.196786,0.182615,0.182615,0.225128,0.225128,0.182615,0.154273,0.154273,0.182615,0.196786,0.196786,0.168444,0.125931,0.140102,0.140102,0.239299,0.182615,0.125931,0.125931,0.111761,0.111761,0.168444,0.140102,0.111761,0.069248,0.111761,0.111761,0.154273,0.168444,0.140102,0.097590,0.055077,0.097590,0.140102,0.111761,0.097590,0.097590,0.069248,0.083419,0.097590,0.069248,0.040906,0.026735,0.012564,0.026735,0.055077,0.069248,0.069248,0.012564,0.040906,-0.001607,0.083419,0.069248,0.040906,-0.001607,-0.001607,-0.029948,0.040906,0.026735,-0.001607,-0.001607,-0.029948,-0.015777,0.012564,0.012564,-0.015777,-0.029948,-0.029948,-0.029948,0.026735,0.012564,-0.015777,-0.029948,-0.044119,-0.015777,0.012564,0.012564,-0.015777,-0.029948,-0.029948,-0.015777,0.012564,-0.015777,-0.001607,-0.029948,-0.058290,-0.001607,-0.001607,-0.015777,-0.015777,-0.015777,-0.029948,-0.044119,-0.015777,-0.001607,-0.029948,-0.058290,-0.072461,-0.058290,0.012564,-0.001607,-0.015777,-0.044119,-0.015777,-0.015777,-0.029948,-0.015777,-0.015777,-0.072461,-0.072461,-0.044119,-0.029948,-0.015777,-0.029948,-0.072461,-0.086632,-0.058290,-0.015777,-0.029948,-0.044119,-0.058290,-0.044119,-0.001607,-0.001607,-0.015777,-0.029948,-0.044119,-0.044119,-0.015777,-0.001607,-0.015777,-0.015777,-0.015777,-0.029948,-0.015777,0.040906,0.040906,0.040906,0.012564,-0.015777,0.026735,0.040906,0.069248,0.154273,0.381007,0.834476,1.698900,3.045135,4.646446,5.652579,5.865142,5.751775,5.595896,5.057402,3.937901,2.549154,0.947843,-0.724322,-2.183924,-3.317595,-4.125336,-4.493779,-4.082823,-3.175886,-2.339804,-1.829652,-1.503721,-1.206132,-1.021911,-0.837689,-0.667638,-0.540100,-0.455075,-0.355879,-0.384221,-0.398392,-0.355879,-0.313366,-0.327537,-0.355879,-0.370050,-0.398392,-0.370050,-0.370050,-0.398392,-0.412562,-0.440904,-0.455075,-0.440904,-0.455075,-0.483417,-0.483417,-0.497588,-0.525930,-0.497588,-0.497588,-0.525930,-0.540100,-0.568442,-0.568442,-0.582613,-0.554271,-0.582613,-0.610955,-0.610955,-0.625126,-0.596784,-0.582613,-0.596784,-0.625126,-0.681809,-0.667638,-0.710151,-0.667638,-0.710151,-0.724322,-0.766835,-0.752664,-0.795177,-0.781006,-0.795177,-0.766835,-0.851860,-0.823518,-0.823518,-0.795177,-0.809347,-0.795177,-0.837689,-0.809347,-0.795177,-0.724322,-0.695980,-0.695980,-0.710151,-0.695980,-0.681809,-0.625126,-0.582613,-0.554271,-0.525930,-0.497588,-0.426733,-0.370050,-0.313366,-0.313366,-0.285024,-0.242512,-0.199999,-0.100803,-0.044119,-0.029948,-0.001607,0.012564,0.111761,0.239299,0.253469,0.267640,0.239299,0.267640,0.324324,0.338495,0.324324,0.338495,0.295982,0.295982,0.338495,0.338495,0.366837,0.352666,0.324324,0.295982,0.338495,0.366837,0.338495,0.310153,0.295982,0.338495,0.338495,0.338495,0.352666,0.295982,0.295982,0.295982,0.310153,0.310153,0.338495,0.310153,0.267640,0.295982,0.310153,0.324324,0.338495,0.295982,0.281811,0.281811,0.281811,0.324324,0.281811,0.295982,0.253469,0.239299,0.310153,0.338495,0.310153,0.310153,0.253469,0.281811,0.253469,0.295982,0.281811,0.253469,0.225128,0.225128,0.253469,0.281811,0.267640,0.239299,0.225128,0.210957,0.225128,0.267640,0.267640,0.239299,0.225128,0.225128,0.210957,0.225128,0.225128,0.196786,0.182615,0.210957,0.182615,0.210957,0.210957,0.182615,0.000000,0.000000,0.000000,0.000000,0.000000,0.000000,0.000000,0.000000,0.000000,0.000000,0.000000,0.000000,0.000000,0.000000,0.000000,0.000000,0.000000,0.000000,0.000000,0.000000,0.000000,0.000000,0.000000,0.000000,0.000000,0.000000,0.000000,0.000000,0.000000,0.000000,0.000000,0.000000,0.000000,0.000000,0.000000,0.000000,0.000000,0.000000,0.000000,0.000000,0.000000,0.000000,0.000000,0.000000,0.000000,0.000000,0.000000,0.000000,0.000000,0.000000,0.000000,0.000000,0.000000,0.000000,0.000000,0.000000,0.000000,0.000000,0.000000,0.000000,0.000000,0.000000,0.000000,0.000000,0.000000,0.000000,0.000000,0.000000,0.000000,0.000000,0.000000,0.000000,0.000000,0.000000,0.000000,0.000000,0.000000,0.000000,0.000000,0.000000,0.000000,0.000000,0.000000,0.000000,0.000000,0.000000,7.000000,102.000000,1.000000
0.239780,0.321423,0.354081,0.321423,0.321423,0.256109,0.288766,0.256109,0.305095,0.288766,0.256109,0.223452,0.223452,0.256109,0.288766,0.272438,0.239780,0.223452,0.207123,0.223452,0.272438,0.272438,0.239780,0.223452,0.223452,0.207123,0.223452,0.223452,0.190795,0.174466,0.207123,0.174466,0.207123,0.207123,0.174466,0.125480,0.109152,0.141809,0.158137,0.174466,0.158137,0.092823,0.092823,0.109152,0.141809,0.125480,0.092823,0.092823,0.043837,0.060166,0.109152,0.060166,0.043837,0.060166,0.011180,0.060166,0.141809,0.076494,0.076494,-0.037806,0.043837,-0.005149,0.060166,0.027509,0.027509,0.011180,-0.054134,0.027509,0.043837,0.027509,-0.021477,-0.005149,0.027509,0.027509,0.060166,0.060166,-0.005149,-0.005149,-0.037806,-0.005149,0.027509,-0.021477,-0.005149,-0.037806,-0.054134,-0.021477,0.027509,-0.005149,-0.005149,-0.021477,-0.037806,-0.005149,0.027509,0.011180,0.011180,-0.037806,-0.037806,-0.037806,0.027509,-0.021477,-0.005149,-0.070463,-0.119449,-0.037806,0.027509,0.011180,0.011180,-0.054134,-0.037806,-0.037806,-0.021477,-0.005149,-0.037806,-0.070463,-0.086792,-0.054134,-0.005149,-0.021477,-0.037806,-0.054134,-0.054134,-0.037806,0.011180,-0.005149,-0.005149,-0.021477,-0.037806,0.011180,-0.005149,0.011180,0.011180,-0.021477,-0.005149,0.043837,0.060166,0.011180,-0.005149,-0.005149,0.076494,0.305095,0.745967,1.415439,2.313512,3.113614,3.946372,4.648502,5.007731,4.958745,4.779131,4.811788,4.485216,2.966656,0.876596,-1.213465,-3.074925,-4.250584,-4.871071,-4.724114,-3.875027,-2.829996,-2.029895,-1.572694,-1.246122,-0.935879,-0.707278,-0.527664,-0.397035,-0.348049,-0.315392,-0.233749,-0.201092,-0.217420,-0.201092,-0.299063,-0.282735,-0.282735,-0.282735,-0.282735,-0.331721,-0.380706,-0.413364,-0.364378,-0.380706,-0.429692,-0.478678,-0.511335,-0.527664,-0.560321,-0.478678,-0.527664,-0.592978,-0.609307,-0.576650,-0.560321,-0.609307,-0.625635,-0.641964,-0.658293,-0.690950,-0.674621,-0.658293,-0.690950,-0.707278,-0.756264,-0.772593,-0.756264,-0.723607,-0.805250,-0.805250,-0.821579,-0.870564,-0.854236,-0.821579,-0.870564,-0.919550,-0.952207,-1.001193,-0.952207,-0.903222,-0.935879,-0.935879,-0.968536,-0.919550,-0.919550,-0.870564,-0.870564,-0.837907,-0.870564,-0.903222,-0.837907,-0.821579,-0.805250,-0.772593,-0.821579,-0.756264,-0.625635,-0.576650,-0.527664,-0.511335,-0.462349,-0.413364,-0.331721,-0.250078,-0.184763,-0.135777,-0.103120,-0.054134,0.076494,0.158137,0.207123,0.239780,0.239780,0.272438,0.337752,0.386738,0.370409,0.337752,0.305095,0.321423,0.337752,0.354081,0.354081,0.370409,0.321423,0.337752,0.321423,0.370409,0.354081,0.321423,0.305095,0.354081,0.354081,0.386738,0.354081,0.337752,0.337752,0.305095,0.305095,0.386738,0.337752,0.337752,0.321423,0.256109,0.305095,0.354081,0.370409,0.337752,0.305095,0.305095,0.305095,0.354081,0.337752,0.305095,0.305095,0.288766,0.288766,0.354081,0.354081,0.288766,0.272438,0.272438,0.321423,0.354081,0.321423,0.321423,0.305095,0.305095,0.337752,0.321423,0.337752,0.321423,0.272438,0.256109,0.305095,0.305095,0.272438,0.256109,0.256109,0.239780,0.256109,0.305095,0.288766,0.256109,0.207123,0.223452,0.272438,0.223452,0.256109,0.207123,0.207123,0.158137,0.223452,0.223452,0.000000,0.000000,0.000000,0.000000,0.000000,0.000000,0.000000,0.000000,0.000000,0.000000,0.000000,0.000000,0.000000,0.000000,0.000000,0.000000,0.000000,0.000000,0.000000,0.000000,0.000000,0.000000,0.000000,0.000000,0.000000,0.000000,0.000000,0.000000,0.000000,0.000000,0.000000,0.000000,0.000000,0.000000,0.000000,0.000000,0.000000,0.000000,0.000000,0.000000,0.000000,0.000000,0.000000,0.000000,0.000000,0.000000,0.000000,0.000000,0.000000,0.000000,0.000000,0.000000,0.000000,0.000000,0.000000,0.000000,0.000000,0.000000,0.000000,0.000000,0.000000,0.000000,0.000000,0.000000,0.000000,0.000000,0.000000,0.000000,0.000000,0.000000,0.000000,0.000000,0.000000,0.000000,0.000000,0.000000,0.000000,0.000000,0.000000,0.000000,0.000000,0.000000,0.000000,0.000000,0.000000,0.000000,0.000000,0.000000,0.000000,0.000000,0.000000,0.000000,0.000000,0.000000,0.000000,0.000000,0.000000,7.000000,102.000000,1.000000
0.485050,0.452981,0.436947,0.469015,0.565221,0.533153,0.549187,0.517118,0.501084,0.517118,0.581255,0.565221,0.565221,0.549187,0.517118,0.565221,0.533153,0.517118,0.549187,0.533153,0.469015,0.501084,0.533153,0.549187,0.517118,0.452981,0.436947,0.436947,0.452981,0.485050,0.469015,0.404878,0.404878,0.372810,0.404878,0.452981,0.388844,0.388844,0.324707,0.292638,0.324707,0.356775,0.356775,0.324707,0.276604,0.260570,0.324707,0.324707,0.324707,0.308673,0.244535,0.244535,0.308673,0.308673,0.276604,0.260570,0.244535,0.260570,0.276604,0.244535,0.244535,0.228501,0.196433,0.212467,0.244535,0.292638,0.244535,0.196433,0.196433,0.228501,0.228501,0.244535,0.244535,0.196433,0.180398,0.180398,0.228501,0.212467,0.228501,0.180398,0.132296,0.196433,0.212467,0.228501,0.228501,0.180398,0.148330,0.148330,0.196433,0.212467,0.196433,0.132296,0.132296,0.164364,0.148330,0.196433,0.164364,0.116261,0.116261,0.164364,0.164364,0.196433,0.180398,0.132296,0.100227,0.100227,0.148330,0.180398,0.164364,0.116261,0.084193,0.148330,0.164364,0.228501,0.212467,0.148330,0.132296,0.116261,0.164364,0.180398,0.164364,0.116261,0.180398,0.436947,0.869872,1.559346,2.345026,3.098637,3.820180,4.365345,4.605859,4.381380,3.563631,2.280889,0.677461,-1.022173,-2.561463,-3.731966,-4.597817,-4.998674,-4.581783,-3.651794,-2.721806,-2.176641,-1.920092,-1.663544,-1.471132,-1.294755,-1.086310,-0.893898,-0.797693,-0.765624,-0.733556,-0.701487,-0.637350,-0.621316,-0.605281,-0.621316,-0.653384,-0.653384,-0.605281,-0.605281,-0.573213,-0.621316,-0.637350,-0.637350,-0.605281,-0.637350,-0.621316,-0.669418,-0.701487,-0.701487,-0.685453,-0.669418,-0.669418,-0.701487,-0.765624,-0.781658,-0.733556,-0.717521,-0.733556,-0.797693,-0.797693,-0.845796,-0.781658,-0.781658,-0.813727,-0.877864,-0.909933,-0.925967,-0.942001,-0.909933,-0.925967,-0.990104,-1.070275,-1.038207,-1.038207,-1.038207,-1.006138,-1.102344,-1.134413,-1.150447,-1.134413,-1.102344,-1.134413,-1.214584,-1.214584,-1.246652,-1.134413,-1.150447,-1.070275,-1.070275,-1.038207,-0.942001,-0.877864,-0.733556,-0.701487,-0.669418,-0.605281,-0.525110,-0.460973,-0.348733,-0.300630,-0.284596,-0.284596,-0.204424,-0.044082,-0.060116,-0.028047,-0.044082,-0.044082,0.036090,0.036090,0.100227,0.100227,0.084193,0.084193,0.084193,0.132296,0.212467,0.228501,0.260570,0.180398,0.244535,0.276604,0.292638,0.292638,0.228501,0.228501,0.244535,0.260570,0.276604,0.324707,0.244535,0.260570,0.260570,0.292638,0.324707,0.388844,0.308673,0.292638,0.308673,0.340741,0.388844,0.404878,0.340741,0.324707,0.324707,0.356775,0.420913,0.372810,0.340741,0.340741,0.388844,0.420913,0.436947,0.469015,0.420913,0.404878,0.469015,0.485050,0.501084,0.517118,0.469015,0.436947,0.469015,0.517118,0.533153,0.517118,0.485050,0.452981,0.517118,0.533153,0.549187,0.565221,0.517118,0.485050,0.501084,0.517118,0.517118,0.533153,0.452981,0.420913,0.452981,0.501084,0.469015,0.469015,0.420913,0.356775,0.388844,0.420913,0.404878,0.404878,0.356775,0.340741,0.000000,0.000000,0.000000,0.000000,0.000000,0.000000,0.000000,0.000000,0.000000,0.000000,0.000000,0.000000,0.000000,0.000000,0.000000,0.000000,0.000000,0.000000,0.000000,0.000000,0.000000,0.000000,0.000000,0.000000,0.000000,0.000000,0.000000,0.000000,0.000000,0.000000,0.000000,0.000000,0.000000,0.000000,0.000000,0.000000,0.000000,0.000000,0.000000,0.000000,0.000000,0.000000,0.000000,0.000000,0.000000,0.000000,0.000000,0.000000,0.000000,0.000000,0.000000,0.000000,0.000000,0.000000,0.000000,0.000000,0.000000,0.000000,0.000000,0.000000,0.000000,0.000000,0.000000,0.000000,0.000000,0.000000,0.000000,0.000000,0.000000,0.000000,0.000000,0.000000,0.000000,0.000000,0.000000,0.000000,0.000000,0.000000,0.000000,0.000000,0.000000,0.000000,0.000000,0.000000,0.000000,0.000000,0.000000,0.000000,0.000000,0.000000,0.000000,0.000000,0.000000,0.000000,0.000000,0.000000,0.000000,0.000000,0.000000,0.000000,0.000000,0.000000,0.000000,0.000000,0.000000,0.000000,0.000000,0.000000,0.000000,0.000000,0.000000,0.000000,0.000000,0.000000,0.000000,1.000000,102.000000,1.000000
0.499919,0.515145,0.515145,0.545597,0.530371,0.515145,0.515145,0.469468,0.515145,0.560822,0.530371,0.484694,0.454242,0.469468,0.515145,0.530371,0.545597,0.484694,0.454242,0.454242,0.469468,0.469468,0.469468,0.454242,0.408565,0.378114,0.439017,0.439017,0.439017,0.408565,0.362888,0.378114,0.408565,0.408565,0.408565,0.378114,0.317211,0.301985,0.347662,0.393339,0.378114,0.347662,0.301985,0.301985,0.301985,0.362888,0.332437,0.317211,0.256308,0.271534,0.286759,0.301985,0.301985,0.271534,0.225856,0.225856,0.301985,0.317211,0.286759,0.271534,0.241082,0.241082,0.256308,0.241082,0.271534,0.241082,0.241082,0.225856,0.271534,0.271534,0.256308,0.241082,0.210631,0.195405,0.225856,0.210631,0.210631,0.210631,0.149728,0.164954,0.225856,0.225856,0.210631,0.210631,0.149728,0.134502,0.195405,0.180179,0.225856,0.149728,0.134502,0.119276,0.164954,0.180179,0.149728,0.149728,0.104051,0.119276,0.164954,0.195405,0.164954,0.149728,0.119276,0.088825,0.119276,0.164954,0.134502,0.119276,0.104051,0.104051,0.149728,0.180179,0.134502,0.119276,0.180179,0.393339,0.941465,1.596171,2.403135,3.179646,3.834352,4.321576,4.549961,4.230221,3.255775,1.839783,0.241082,-1.509876,-2.971545,-4.113474,-4.905212,-5.042243,-4.463666,-3.473994,-2.606128,-2.103679,-1.844842,-1.555553,-1.342393,-1.144458,-0.946524,-0.824718,-0.748590,-0.718138,-0.687687,-0.657235,-0.611558,-0.565881,-0.565881,-0.565881,-0.596332,-0.596332,-0.565881,-0.520204,-0.565881,-0.581107,-0.596332,-0.581107,-0.611558,-0.581107,-0.596332,-0.626784,-0.687687,-0.672461,-0.642010,-0.642010,-0.642010,-0.657235,-0.702913,-0.702913,-0.718138,-0.672461,-0.687687,-0.733364,-0.779041,-0.763815,-0.763815,-0.733364,-0.763815,-0.809493,-0.870395,-0.885621,-0.855170,-0.855170,-0.900847,-0.931298,-1.007427,-1.007427,-1.022653,-0.992201,-1.037878,-1.022653,-1.129233,-1.144458,-1.114007,-1.114007,-1.114007,-1.144458,-1.159684,-1.174910,-1.098781,-1.053104,-1.037878,-0.976976,-1.007427,-0.931298,-0.839944,-0.748590,-0.702913,-0.596332,-0.565881,-0.428850,-0.322270,-0.185238,-0.124335,-0.109109,-0.048207,-0.002529,0.043148,0.134502,0.134502,0.149728,0.134502,0.149728,0.225856,0.225856,0.195405,0.180179,0.149728,0.119276,0.180179,0.180179,0.180179,0.119276,0.164954,0.164954,0.225856,0.286759,0.286759,0.271534,0.256308,0.256308,0.301985,0.301985,0.317211,0.317211,0.256308,0.256308,0.317211,0.347662,0.317211,0.347662,0.301985,0.301985,0.347662,0.347662,0.347662,0.332437,0.362888,0.332437,0.347662,0.362888,0.347662,0.332437,0.332437,0.362888,0.378114,0.393339,0.408565,0.378114,0.378114,0.408565,0.408565,0.454242,0.439017,0.423791,0.423791,0.393339,0.454242,0.484694,0.469468,0.484694,0.439017,0.469468,0.499919,0.499919,0.499919,0.484694,0.454242,0.439017,0.499919,0.515145,0.439017,0.454242,0.423791,0.393339,0.439017,0.484694,0.439017,0.423791,0.393339,0.378114,0.393339,0.408565,0.423791,0.393339,0.362888,0.000000,0.000000,0.000000,0.000000,0.000000,0.000000,0.000000,0.000000,0.000000,0.000000,0.000000,0.000000,0.000000,0.000000,0.000000,0.000000,0.000000,0.000000,0.000000,0.000000,0.000000,0.000000,0.000000,0.000000,0.000000,0.000000,0.000000,0.000000,0.000000,0.000000,0.000000,0.000000,0.000000,0.000000,0.000000,0.000000,0.000000,0.000000,0.000000,0.000000,0.000000,0.000000,0.000000,0.000000,0.000000,0.000000,0.000000,0.000000,0.000000,0.000000,0.000000,0.000000,0.000000,0.000000,0.000000,0.000000,0.000000,0.000000,0.000000,0.000000,0.000000,0.000000,0.000000,0.000000,0.000000,0.000000,0.000000,0.000000,0.000000,0.000000,0.000000,0.000000,0.000000,0.000000,0.000000,0.000000,0.000000,0.000000,0.000000,0.000000,0.000000,0.000000,0.000000,0.000000,0.000000,0.000000,0.000000,0.000000,0.000000,0.000000,0.000000,0.000000,0.000000,0.000000,0.000000,0.000000,0.000000,0.000000,0.000000,0.000000,0.000000,0.000000,0.000000,0.000000,0.000000,0.000000,0.000000,0.000000,0.000000,0.000000,0.000000,0.000000,0.000000,0.000000,0.000000,0.000000,0.000000,0.000000,0.000000,0.000000,0.000000,0.000000,0.000000,1.000000,102.000000,1.000000
0.354767,0.323383,0.339075,0.292000,0.323383,0.354767,0.354767,0.401843,0.354767,0.354767,0.354767,0.401843,0.433227,0.433227,0.448919,0.417535,0.401843,0.464610,0.464610,0.480302,0.464610,0.417535,0.448919,0.480302,0.511686,0.480302,0.448919,0.417535,0.433227,0.464610,0.511686,0.511686,0.448919,0.370459,0.417535,0.448919,0.448919,0.401843,0.401843,0.370459,0.417535,0.433227,0.386151,0.386151,0.339075,0.354767,0.354767,0.354767,0.401843,0.386151,0.370459,0.292000,0.323383,0.339075,0.386151,0.354767,0.307692,0.244924,0.276308,0.307692,0.323383,0.307692,0.292000,0.260616,0.292000,0.276308,0.307692,0.276308,0.244924,0.229232,0.229232,0.276308,0.244924,0.244924,0.229232,0.182156,0.229232,0.229232,0.244924,0.244924,0.244924,0.197848,0.213540,0.229232,0.229232,0.276308,0.229232,0.182156,0.213540,0.213540,0.276308,0.229232,0.229232,0.135081,0.182156,0.182156,0.244924,0.182156,0.182156,0.166464,0.182156,0.213540,0.197848,0.182156,0.166464,0.150773,0.135081,0.166464,0.197848,0.197848,0.135081,0.119389,0.119389,0.135081,0.182156,0.150773,0.103697,0.072313,0.119389,0.150773,0.150773,0.135081,0.088005,0.072313,0.103697,0.103697,0.135081,0.150773,0.103697,0.056621,0.088005,0.135081,0.119389,0.182156,0.103697,0.056621,0.103697,0.150773,0.182156,0.166464,0.135081,0.088005,0.056621,0.135081,0.244924,0.527378,1.029519,1.751346,2.645784,3.524530,4.120822,4.528811,4.622962,4.167897,3.195000,1.876881,0.354767,-1.324265,-2.846379,-4.101731,-4.933401,-5.200163,-4.839250,-3.897736,-3.066066,-2.548233,-2.140244,-1.842098,-1.606720,-1.339957,-1.214422,-1.088887,-0.916276,-0.806433,-0.712282,-0.696590,-0.712282,-0.680898,-0.649514,-0.633822,-0.602438,-0.618130,-0.571055,-0.586746,-0.571055,-0.571055,-0.555363,-0.586746,-0.618130,-0.649514,-0.602438,-0.571055,-0.586746,-0.586746,-0.618130,-0.649514,-0.649514,-0.649514,-0.649514,-0.665206,-0.696590,-0.727974,-0.727974,-0.680898,-0.696590,-0.727974,-0.759357,-0.790741,-0.806433,-0.790741,-0.790741,-0.806433,-0.837817,-0.916276,-0.916276,-0.884892,-0.900584,-0.963352,-0.979044,-1.057503,-1.041811,-1.026119,-1.010428,-1.026119,-1.120271,-1.120271,-1.135963,-1.120271,-1.104579,-1.088887,-1.151655,-1.167347,-1.135963,-1.104579,-1.073195,-1.057503,-1.057503,-1.026119,-0.916276,-0.869201,-0.759357,-0.665206,-0.618130,-0.539671,-0.414136,-0.319984,-0.210141,-0.147373,-0.115990,-0.100298,-0.006146,0.025237,0.056621,0.119389,0.135081,0.135081,0.166464,0.166464,0.182156,0.150773,0.119389,0.088005,0.088005,0.135081,0.182156,0.182156,0.135081,0.119389,0.182156,0.213540,0.292000,0.260616,0.260616,0.244924,0.229232,0.276308,0.292000,0.292000,0.260616,0.260616,0.307692,0.307692,0.323383,0.292000,0.307692,0.292000,0.307692,0.339075,0.370459,0.339075,0.323383,0.339075,0.339075,0.386151,0.354767,0.417535,0.354767,0.370459,0.354767,0.433227,0.433227,0.433227,0.417535,0.370459,0.417535,0.480302,0.464610,0.464610,0.448919,0.464610,0.448919,0.464610,0.527378,0.543070,0.495994,0.464610,0.511686,0.543070,0.574454,0.543070,0.527378,0.495994,0.480302,0.527378,0.543070,0.527378,0.480302,0.464610,0.480302,0.527378,0.558762,0.527378,0.448919,0.433227,0.495994,0.511686,0.464610,0.000000,0.000000,0.000000,0.000000,0.000000,0.000000,0.000000,0.000000,0.000000,0.000000,0.000000,0.000000,0.000000,0.000000,0.000000,0.000000,0.000000,0.000000,0.000000,0.000000,0.000000,0.000000,0.000000,0.000000,0.000000,0.000000,0.000000,0.000000,0.000000,0.000000,0.000000,0.000000,0.000000,0.000000,0.000000,0.000000,0.000000,0.000000,0.000000,0.000000,0.000000,0.000000,0.000000,0.000000,0.000000,0.000000,0.000000,0.000000,0.000000,0.000000,0.000000,0.000000,0.000000,0.000000,0.000000,0.000000,0.000000,0.000000,0.000000,0.000000,0.000000,0.000000,0.000000,0.000000,0.000000,0.000000,0.000000,0.000000,0.000000,0.000000,0.000000,0.000000,0.000000,0.000000,0.000000,0.000000,0.000000,0.000000,0.000000,0.000000,0.000000,0.000000,0.000000,0.000000,0.000000,0.000000,0.000000,0.000000,0.000000,0.000000,0.000000,0.000000,0.000000,1.000000,102.000000,1.000000
0.007329,0.051154,0.080371,0.080371,0.065763,0.051154,0.036546,0.036546,0.065763,0.065763,0.021937,-0.007280,0.007329,0.007329,0.021937,0.021937,0.007329,-0.036497,-0.021888,-0.021888,0.036546,0.051154,0.021937,-0.007280,-0.007280,0.007329,0.065763,0.036546,0.051154,0.051154,0.065763,0.109588,0.153414,0.138805,0.124197,0.138805,0.080371,0.065763,0.051154,0.007329,-0.007280,-0.036497,-0.065714,-0.051105,-0.036497,-0.094931,-0.124147,-0.182581,-0.211798,-0.226407,-0.226407,-0.211798,-0.241015,-0.241015,-0.255624,-0.167973,-0.080322,-0.094931,-0.109539,-0.094931,-0.138756,-0.094931,-0.080322,-0.065714,-0.094931,-0.124147,-0.138756,-0.109539,-0.080322,-0.080322,-0.065714,-0.080322,-0.109539,-0.080322,-0.051105,-0.036497,-0.080322,-0.080322,-0.094931,-0.109539,-0.051105,-0.051105,-0.051105,-0.094931,-0.094931,-0.080322,-0.036497,-0.051105,-0.051105,-0.065714,-0.080322,-0.036497,0.021937,0.007329,0.021937,-0.007280,0.021937,0.124197,0.255673,0.766970,1.789564,2.622247,2.563813,1.950257,1.497394,1.322092,1.205224,1.059139,0.956880,0.956880,0.913055,0.766970,0.547843,0.270281,-0.138756,-0.547793,-0.898397,-1.146741,-1.219784,-1.234392,-1.205175,-1.132133,-1.088307,-1.190567,-1.599604,-2.344637,-3.235754,-4.053829,-4.696602,-5.178682,-5.441635,-5.368592,-5.061814,-4.594343,-3.907744,-3.089669,-2.330028,-1.804123,-1.438911,-1.132133,-0.898397,-0.752312,-0.606227,-0.518576,-0.401709,-0.299449,-0.226407,-0.197190,-0.167973,-0.167973,-0.094931,-0.065714,-0.021888,-0.036497,-0.021888,-0.021888,0.021937,0.036546,0.080371,0.138805,0.109588,0.094980,0.109588,0.124197,0.168022,0.197239,0.197239,0.168022,0.226456,0.241065,0.270281,0.284890,0.270281,0.284890,0.328715,0.343324,0.416366,0.430975,0.416366,0.416366,0.445583,0.460192,0.474800,0.533234,0.547843,0.518626,0.518626,0.591668,0.606277,0.635494,0.635494,0.620885,0.635494,0.693927,0.708536,0.708536,0.723144,0.679319,0.708536,0.708536,0.752361,0.752361,0.752361,0.737753,0.708536,0.723144,0.752361,0.723144,0.708536,0.693927,0.664710,0.679319,0.708536,0.723144,0.693927,0.664710,0.620885,0.635494,0.620885,0.606277,0.562451,0.533234,0.518626,0.533234,0.518626,0.518626,0.474800,0.416366,0.387149,0.357932,0.372541,0.372541,0.343324,0.299498,0.270281,0.255673,0.284890,0.226456,0.255673,0.241065,0.226456,0.255673,0.255673,0.284890,0.255673,0.241065,0.270281,0.255673,0.299498,0.270281,0.241065,0.270281,0.255673,0.270281,0.299498,0.299498,0.284890,0.241065,0.241065,0.299498,0.299498,0.299498,0.270281,0.241065,0.255673,0.270281,0.343324,0.270281,0.284890,0.255673,0.255673,0.241065,0.270281,0.270281,0.255673,0.211848,0.197239,0.255673,0.255673,0.241065,0.241065,0.226456,0.226456,0.241065,0.255673,0.241065,0.241065,0.197239,0.153414,0.211848,0.241065,0.197239,0.211848,0.197239,0.168022,0.211848,0.241065,0.000000,0.000000,0.000000,0.000000,0.000000,0.000000,0.000000,0.000000,0.000000,0.000000,0.000000,0.000000,0.000000,0.000000,0.000000,0.000000,0.000000,0.000000,0.000000,0.000000,0.000000,0.000000,0.000000,0.000000,0.000000,0.000000,0.000000,0.000000,0.000000,0.000000,0.000000,0.000000,0.000000,0.000000,0.000000,0.000000,0.000000,0.000000,0.000000,0.000000,0.000000,0.000000,0.000000,0.000000,0.000000,0.000000,0.000000,0.000000,0.000000,0.000000,0.000000,0.000000,0.000000,0.000000,0.000000,0.000000,0.000000,0.000000,0.000000,0.000000,0.000000,0.000000,0.000000,0.000000,0.000000,0.000000,0.000000,0.000000,0.000000,0.000000,0.000000,0.000000,0.000000,0.000000,0.000000,0.000000,0.000000,0.000000,0.000000,0.000000,0.000000,0.000000,0.000000,0.000000,0.000000,0.000000,0.000000,0.000000,0.000000,0.000000,0.000000,0.000000,0.000000,0.000000,0.000000,0.000000,0.000000,0.000000,0.000000,0.000000,0.000000,0.000000,0.000000,0.000000,0.000000,0.000000,0.000000,0.000000,0.000000,0.000000,0.000000,0.000000,0.000000,0.000000,0.000000,0.000000,0.000000,0.000000,0.000000,0.000000,0.000000,0.000000,0.000000,0.000000,0.000000,0.000000,0.000000,0.000000,0.000000,0.000000,0.000000,0.000000,0.000000,7.000000,102.000000,1.000000
-0.061655,-0.061655,-0.065362,-0.072775,-0.080188,-0.091308,-0.080188,-0.076482,-0.080188,-0.087602,-0.095015,-0.098722,-0.091308,-0.095015,-0.098722,-0.109842,-0.109842,-0.109842,-0.109842,-0.098722,-0.106135,-0.109842,-0.120961,-0.124668,-0.124668,-0.109842,-0.113548,-0.120961,-0.132081,-0.135788,-0.132081,-0.113548,-0.128375,-0.124668,-0.139495,-0.124668,-0.124668,-0.117255,-0.120961,-0.124668,-0.132081,-0.135788,-0.135788,-0.120961,-0.124668,-0.124668,-0.135788,-0.132081,-0.124668,-0.128375,-0.120961,-0.132081,-0.139495,-0.132081,-0.128375,-0.120961,-0.124668,-0.128375,-0.128375,-0.139495,-0.132081,-0.124668,-0.124668,-0.120961,-0.135788,-0.124668,-0.120961,-0.117255,-0.128375,-0.128375,-0.135788,-0.139495,-0.132081,-0.117255,-0.124668,-0.124668,-0.124668,-0.132081,-0.124668,-0.109842,-0.113548,-0.102428,-0.102428,-0.061655,0.049544,0.271943,0.568474,0.698207,0.557354,0.338662,0.231170,0.216343,0.179277,0.149623,0.112557,0.082904,0.042131,-0.017175,-0.117255,-0.235867,-0.398960,-0.584292,-0.762211,-0.917890,-1.095809,-1.284848,-1.481300,-1.629565,-1.744471,-1.818604,-1.903857,-1.955750,-2.007643,-2.044710,-2.081776,-2.129962,-2.196682,-2.226335,-2.267108,-2.278228,-2.289348,-2.296761,-2.307881,-2.326415,-2.344948,-2.337534,-2.330121,-2.322708,-2.311588,-2.322708,-2.307881,-2.281935,-2.244868,-2.185562,-2.126256,-2.052123,-1.977990,-1.877911,-1.781538,-1.655512,-1.507246,-1.362687,-1.195888,-1.029089,-0.858584,-0.695491,-0.543519,-0.380427,-0.250694,-0.124668,0.001358,0.101437,0.197810,0.294183,0.372022,0.449862,0.505461,0.549941,0.594421,0.624074,0.642607,0.668554,0.709327,0.731567,0.761220,0.787166,0.805699,0.824233,0.853886,0.883539,0.916899,0.931725,0.950259,0.976205,1.016978,1.039218,1.065164,1.087404,1.113351,1.146711,1.172657,1.198604,1.224550,1.250497,1.276443,1.302390,1.328336,1.365403,1.380229,1.398762,1.417296,1.439536,1.465482,1.495135,1.502548,1.521082,1.524788,1.539615,1.550735,1.565561,1.565561,1.565561,1.554441,1.543322,1.543322,1.543322,1.524788,1.495135,1.465482,1.439536,1.413589,1.391349,1.354283,1.320923,1.272737,1.239377,1.194897,1.168951,1.105938,1.065164,1.013271,0.961378,0.924312,0.879832,0.827939,0.779753,0.713033,0.675967,0.627781,0.598127,0.553648,0.509168,0.464688,0.423915,0.401675,0.360902,0.346076,0.305303,0.279356,0.249703,0.234876,0.223756,0.201517,0.179277,0.153330,0.134797,0.127384,0.119970,0.105144,0.094024,0.071784,0.060664,0.049544,0.053251,0.038424,0.034718,0.016184,0.016184,0.016184,0.016184,0.016184,0.001358,-0.009762,-0.009762,-0.009762,-0.002349,-0.006056,-0.002349,-0.017175,-0.020882,-0.020882,-0.009762,-0.013469,0.000000,0.000000,0.000000,0.000000,0.000000,0.000000,0.000000,0.000000,0.000000,0.000000,0.000000,0.000000,0.000000,0.000000,0.000000,0.000000,0.000000,0.000000,0.000000,0.000000,0.000000,0.000000,0.000000,0.000000,0.000000,0.000000,0.000000,0.000000,0.000000,0.000000,0.000000,0.000000,0.000000,0.000000,0.000000,0.000000,0.000000,0.000000,0.000000,0.000000,0.000000,0.000000,0.000000,0.000000,0.000000,0.000000,0.000000,0.000000,0.000000,0.000000,0.000000,0.000000,0.000000,0.000000,0.000000,0.000000,0.000000,0.000000,0.000000,0.000000,0.000000,0.000000,0.000000,0.000000,0.000000,0.000000,0.000000,0.000000,0.000000,0.000000,0.000000,0.000000,0.000000,0.000000,0.000000,0.000000,0.000000,0.000000,0.000000,0.000000,0.000000,0.000000,0.000000,0.000000,0.000000,0.000000,0.000000,0.000000,0.000000,0.000000,0.000000,0.000000,0.000000,0.000000,0.000000,0.000000,0.000000,0.000000,0.000000,0.000000,0.000000,0.000000,0.000000,0.000000,0.000000,0.000000,0.000000,0.000000,0.000000,0.000000,0.000000,0.000000,0.000000,0.000000,0.000000,0.000000,0.000000,0.000000,0.000000,0.000000,0.000000,0.000000,0.000000,0.000000,0.000000,0.000000,0.000000,0.000000,0.000000,0.000000,0.000000,0.000000,0.000000,0.000000,0.000000,0.000000,0.000000,0.000000,0.000000,0.000000,0.000000,0.000000,0.000000,0.000000,0.000000,0.000000,0.000000,0.000000,0.000000,0.000000,0.000000,0.000000,0.000000,0.000000,0.000000,0.000000,0.000000,8.000000,102.000000,1.000000
0.037946,0.041753,0.030333,0.015105,0.003685,-0.011542,-0.011542,-0.022963,-0.015349,-0.026770,-0.041997,-0.053418,-0.064838,-0.057224,-0.061031,-0.064838,-0.068645,-0.072452,-0.076259,-0.072452,-0.057224,-0.061031,-0.068645,-0.080066,-0.083872,-0.083872,-0.080066,-0.087679,-0.095293,-0.091486,-0.099100,-0.099100,-0.091486,-0.091486,-0.102907,-0.102907,-0.106713,-0.095293,-0.099100,-0.106713,-0.102907,-0.110520,-0.110520,-0.099100,-0.099100,-0.106713,-0.106713,-0.121941,-0.121941,-0.110520,-0.110520,-0.106713,-0.110520,-0.121941,-0.114327,-0.110520,-0.102907,-0.114327,-0.118134,-0.125748,-0.129554,-0.121941,-0.110520,-0.110520,-0.118134,-0.121941,-0.121941,-0.118134,-0.110520,-0.106713,-0.110520,-0.114327,-0.114327,-0.118134,-0.106713,-0.114327,-0.118134,-0.114327,-0.121941,-0.110520,-0.110520,-0.110520,-0.110520,-0.114327,-0.114327,-0.102907,-0.106713,-0.091486,-0.083872,-0.087679,-0.083872,-0.041997,0.041753,0.232095,0.525222,0.688916,0.586131,0.380562,0.270164,0.224481,0.190220,0.152152,0.129311,0.106470,0.079822,0.011299,-0.072452,-0.198077,-0.350351,-0.502624,-0.685353,-0.871888,-1.062230,-1.248765,-1.450527,-1.598994,-1.728426,-1.827404,-1.922575,-1.983484,-2.010132,-2.052007,-2.090076,-2.147178,-2.219508,-2.261383,-2.280417,-2.295645,-2.299452,-2.318486,-2.341327,-2.352747,-2.364168,-2.356554,-2.352747,-2.352747,-2.352747,-2.348941,-2.341327,-2.314679,-2.272804,-2.230929,-2.185247,-2.128144,-2.055814,-1.960643,-1.865472,-1.766494,-1.652289,-1.526664,-1.347742,-1.172628,-1.012741,-0.860467,-0.712001,-0.567341,-0.418874,-0.258987,-0.133361,-0.022963,0.087435,0.182606,0.277777,0.369141,0.460505,0.521415,0.563290,0.597552,0.628006,0.658461,0.696529,0.723177,0.746018,0.765052,0.799314,0.829769,0.860223,0.890678,0.909712,0.924940,0.959201,0.985849,1.016304,1.042951,1.061986,1.092440,1.107668,1.141929,1.176191,1.206645,1.233293,1.252328,1.271362,1.313237,1.347498,1.374146,1.389374,1.408408,1.438863,1.473124,1.488351,1.518806,1.534034,1.541647,1.545454,1.568295,1.579716,1.591136,1.591136,1.579716,1.572102,1.579716,1.572102,1.564488,1.541647,1.514999,1.492158,1.469317,1.438863,1.416022,1.381760,1.339885,1.286589,1.256134,1.218066,1.176191,1.126702,1.058179,1.020110,0.978235,0.928746,0.879257,0.829769,0.780280,0.730791,0.681302,0.647040,0.597552,0.563290,0.502381,0.460505,0.433858,0.418630,0.380562,0.338687,0.308232,0.273970,0.258743,0.239709,0.216868,0.194027,0.163572,0.136924,0.140731,0.129311,0.117890,0.110276,0.087435,0.079822,0.083628,0.083628,0.072208,0.053174,0.041753,0.041753,0.037946,0.037946,0.026526,0.018912,0.007492,-0.000122,0.018912,0.022719,0.015105,0.007492,-0.000122,-0.000122,0.015105,0.015105,0.007492,-0.000122,0.000000,0.000000,0.000000,0.000000,0.000000,0.000000,0.000000,0.000000,0.000000,0.000000,0.000000,0.000000,0.000000,0.000000,0.000000,0.000000,0.000000,0.000000,0.000000,0.000000,0.000000,0.000000,0.000000,0.000000,0.000000,0.000000,0.000000,0.000000,0.000000,0.000000,0.000000,0.000000,0.000000,0.000000,0.000000,0.000000,0.000000,0.000000,0.000000,0.000000,0.000000,0.000000,0.000000,0.000000,0.000000,0.000000,0.000000,0.000000,0.000000,0.000000,0.000000,0.000000,0.000000,0.000000,0.000000,0.000000,0.000000,0.000000,0.000000,0.000000,0.000000,0.000000,0.000000,0.000000,0.000000,0.000000,0.000000,0.000000,0.000000,0.000000,0.000000,0.000000,0.000000,0.000000,0.000000,0.000000,0.000000,0.000000,0.000000,0.000000,0.000000,0.000000,0.000000,0.000000,0.000000,0.000000,0.000000,0.000000,0.000000,0.000000,0.000000,0.000000,0.000000,0.000000,0.000000,0.000000,0.000000,0.000000,0.000000,0.000000,0.000000,0.000000,0.000000,0.000000,0.000000,0.000000,0.000000,0.000000,0.000000,0.000000,0.000000,0.000000,0.000000,0.000000,0.000000,0.000000,0.000000,0.000000,0.000000,0.000000,0.000000,0.000000,0.000000,0.000000,0.000000,0.000000,0.000000,0.000000,0.000000,0.000000,0.000000,0.000000,0.000000,0.000000,0.000000,0.000000,0.000000,0.000000,0.000000,0.000000,0.000000,0.000000,0.000000,0.000000,0.000000,0.000000,0.000000,0.000000,0.000000,8.000000,102.000000,1.000000
-0.050532,-0.054520,-0.054520,-0.046544,-0.046544,-0.038567,-0.042555,-0.046544,-0.046544,-0.042555,-0.042555,-0.050532,-0.054520,-0.066485,-0.050532,-0.046544,-0.062497,-0.062497,-0.070473,-0.070473,-0.070473,-0.070473,-0.074461,-0.082438,-0.082438,-0.094402,-0.098391,-0.082438,-0.090414,-0.086426,-0.098391,-0.102379,-0.098391,-0.094402,-0.094402,-0.102379,-0.098391,-0.110355,-0.102379,-0.098391,-0.098391,-0.102379,-0.110355,-0.114344,-0.110355,-0.102379,-0.102379,-0.110355,-0.106367,-0.122320,-0.110355,-0.106367,-0.110355,-0.106367,-0.118332,-0.118332,-0.110355,-0.102379,-0.106367,-0.114344,-0.114344,-0.118332,-0.118332,-0.106367,-0.114344,-0.118332,-0.118332,-0.126308,-0.110355,-0.114344,-0.098391,-0.106367,-0.122320,-0.122320,-0.122320,-0.102379,-0.106367,-0.114344,-0.114344,-0.122320,-0.102379,-0.102379,-0.110355,-0.102379,-0.106367,-0.110355,-0.094402,-0.078449,-0.070473,-0.034579,0.045186,0.252574,0.539726,0.719196,0.643420,0.444009,0.292456,0.228644,0.204715,0.176797,0.140903,0.105009,0.049174,-0.006661,-0.074461,-0.190120,-0.337684,-0.509178,-0.708590,-0.919966,-1.091460,-1.282895,-1.482306,-1.661777,-1.793388,-1.897082,-1.984823,-2.032682,-2.084529,-2.120423,-2.176258,-2.232093,-2.275964,-2.299893,-2.319834,-2.339776,-2.359717,-2.387634,-2.387634,-2.383646,-2.395611,-2.399599,-2.407575,-2.395611,-2.395611,-2.379658,-2.359717,-2.347752,-2.311858,-2.252034,-2.172270,-2.084529,-1.984823,-1.893094,-1.781423,-1.617906,-1.454389,-1.262954,-1.099436,-0.919966,-0.760437,-0.588943,-0.405484,-0.245955,-0.118332,0.005303,0.116974,0.220668,0.328350,0.408115,0.487879,0.527761,0.563655,0.599550,0.639432,0.671338,0.699255,0.715208,0.727173,0.759079,0.786996,0.818902,0.846820,0.866761,0.882714,0.918608,0.946525,0.982420,1.014325,1.034267,1.058196,1.086114,1.114031,1.149925,1.165878,1.193796,1.221713,1.245643,1.281537,1.325407,1.341360,1.369278,1.389219,1.417137,1.445054,1.464995,1.492913,1.512854,1.512854,1.540772,1.548748,1.568689,1.580654,1.572677,1.572677,1.572677,1.568689,1.568689,1.560713,1.536783,1.516842,1.492913,1.476960,1.449042,1.425113,1.389219,1.349337,1.293501,1.261596,1.225702,1.177843,1.122008,1.070161,1.030278,0.978431,0.942537,0.874737,0.814914,0.775032,0.727173,0.679314,0.639432,0.599550,0.559667,0.503832,0.459961,0.428056,0.412103,0.368232,0.340315,0.308409,0.288468,0.264538,0.240609,0.224656,0.192750,0.168821,0.144891,0.140903,0.140903,0.120962,0.116974,0.089056,0.081080,0.081080,0.069115,0.061139,0.053162,0.033221,0.037209,0.029233,0.029233,0.021256,0.009292,0.005303,-0.002673,0.005303,0.001315,0.001315,-0.006661,-0.018626,-0.014638,-0.006661,0.009292,0.009292,-0.006661,-0.022614,-0.022614,-0.010650,0.000000,0.000000,0.000000,0.000000,0.000000,0.000000,0.000000,0.000000,0.000000,0.000000,0.000000,0.000000,0.000000,0.000000,0.000000,0.000000,0.000000,0.000000,0.000000,0.000000,0.000000,0.000000,0.000000,0.000000,0.000000,0.000000,0.000000,0.000000,0.000000,0.000000,0.000000,0.000000,0.000000,0.000000,0.000000,0.000000,0.000000,0.000000,0.000000,0.000000,0.000000,0.000000,0.000000,0.000000,0.000000,0.000000,0.000000,0.000000,0.000000,0.000000,0.000000,0.000000,0.000000,0.000000,0.000000,0.000000,0.000000,0.000000,0.000000,0.000000,0.000000,0.000000,0.000000,0.000000,0.000000,0.000000,0.000000,0.000000,0.000000,0.000000,0.000000,0.000000,0.000000,0.000000,0.000000,0.000000,0.000000,0.000000,0.000000,0.000000,0.000000,0.000000,0.000000,0.000000,0.000000,0.000000,0.000000,0.000000,0.000000,0.000000,0.000000,0.000000,0.000000,0.000000,0.000000,0.000000,0.000000,0.000000,0.000000,0.000000,0.000000,0.000000,0.000000,0.000000,0.000000,0.000000,0.000000,0.000000,0.000000,0.000000,0.000000,0.000000,0.000000,0.000000,0.000000,0.000000,0.000000,0.000000,0.000000,0.000000,0.000000,0.000000,0.000000,0.000000,0.000000,0.000000,0.000000,0.000000,0.000000,0.000000,0.000000,0.000000,0.000000,0.000000,0.000000,0.000000,0.000000,0.000000,0.000000,0.000000,0.000000,0.000000,0.000000,0.000000,0.000000,0.000000,0.000000,0.000000,0.000000,0.000000,0.000000,8.000000,102.000000,1.000000
-0.038657,-0.038657,-0.035052,-0.049472,-0.038657,-0.042262,-0.045867,-0.049472,-0.060287,-0.071102,-0.063892,-0.053077,-0.063892,-0.067497,-0.067497,-0.081917,-0.078312,-0.081917,-0.085522,-0.085522,-0.092732,-0.092732,-0.092732,-0.089127,-0.089127,-0.092732,-0.107152,-0.110757,-0.103547,-0.103547,-0.099942,-0.107152,-0.117967,-0.117967,-0.128781,-0.110757,-0.121572,-0.117967,-0.117967,-0.117967,-0.121572,-0.110757,-0.107152,-0.114362,-0.125176,-0.132386,-0.117967,-0.117967,-0.125176,-0.114362,-0.128781,-0.128781,-0.132386,-0.121572,-0.121572,-0.128781,-0.132386,-0.128781,-0.125176,-0.114362,-0.117967,-0.114362,-0.125176,-0.128781,-0.117967,-0.114362,-0.110757,-0.117967,-0.121572,-0.128781,-0.121572,-0.110757,-0.121572,-0.121572,-0.128781,-0.132386,-0.128781,-0.125176,-0.114362,-0.121572,-0.110757,-0.128781,-0.125176,-0.114362,-0.110757,-0.128781,-0.114362,-0.114362,-0.114362,-0.099942,-0.081917,-0.063892,-0.042262,0.051467,0.271369,0.534531,0.664310,0.566976,0.383123,0.256949,0.213690,0.195665,0.163220,0.137986,0.098331,0.058676,-0.002608,-0.060287,-0.175646,-0.291005,-0.456833,-0.633476,-0.810119,-0.979552,-1.148985,-1.340048,-1.505876,-1.646470,-1.747408,-1.833928,-1.906027,-1.952891,-2.006966,-2.043015,-2.093485,-2.143954,-2.198028,-2.244893,-2.273733,-2.291757,-2.302572,-2.316992,-2.327807,-2.342227,-2.356647,-2.367462,-2.363857,-2.342227,-2.335017,-2.338622,-2.331412,-2.306177,-2.280943,-2.230473,-2.165584,-2.111509,-2.043015,-1.956496,-1.848347,-1.732989,-1.606815,-1.451802,-1.296788,-1.141775,-0.975947,-0.828144,-0.683945,-0.536142,-0.391944,-0.254955,-0.121572,0.000997,0.098331,0.192060,0.278579,0.350678,0.429987,0.494877,0.534531,0.574186,0.592211,0.613840,0.657100,0.700359,0.725594,0.750829,0.765249,0.794088,0.819323,0.855373,0.877002,0.902237,0.923867,0.938287,0.963521,0.999571,1.032016,1.050040,1.082485,1.093300,1.125745,1.158189,1.194239,1.223079,1.241103,1.262733,1.298783,1.327622,1.352857,1.370882,1.399722,1.399722,1.435771,1.461006,1.475426,1.504265,1.507870,1.518685,1.533105,1.543920,1.551130,1.561945,1.551130,1.551130,1.554735,1.551130,1.547525,1.533105,1.515080,1.493451,1.482636,1.457401,1.432166,1.406932,1.363672,1.324017,1.298783,1.269943,1.226684,1.179819,1.136560,1.078880,1.046436,1.010386,0.949102,0.905842,0.848163,0.804903,0.761644,0.725594,0.689544,0.646285,0.603025,0.563371,0.530926,0.498482,0.455222,0.426382,0.390333,0.343468,0.321839,0.303814,0.278579,0.253344,0.220900,0.210085,0.181245,0.170430,0.156010,0.141591,0.112751,0.094726,0.087516,0.091121,0.073096,0.062281,0.040652,0.026232,0.019022,0.022627,0.019022,0.019022,-0.006213,-0.009818,-0.013423,-0.017028,-0.002608,-0.013423,-0.024238,-0.027843,-0.027843,-0.020633,0.000000,0.000000,0.000000,0.000000,0.000000,0.000000,0.000000,0.000000,0.000000,0.000000,0.000000,0.000000,0.000000,0.000000,0.000000,0.000000,0.000000,0.000000,0.000000,0.000000,0.000000,0.000000,0.000000,0.000000,0.000000,0.000000,0.000000,0.000000,0.000000,0.000000,0.000000,0.000000,0.000000,0.000000,0.000000,0.000000,0.000000,0.000000,0.000000,0.000000,0.000000,0.000000,0.000000,0.000000,0.000000,0.000000,0.000000,0.000000,0.000000,0.000000,0.000000,0.000000,0.000000,0.000000,0.000000,0.000000,0.000000,0.000000,0.000000,0.000000,0.000000,0.000000,0.000000,0.000000,0.000000,0.000000,0.000000,0.000000,0.000000,0.000000,0.000000,0.000000,0.000000,0.000000,0.000000,0.000000,0.000000,0.000000,0.000000,0.000000,0.000000,0.000000,0.000000,0.000000,0.000000,0.000000,0.000000,0.000000,0.000000,0.000000,0.000000,0.000000,0.000000,0.000000,0.000000,0.000000,0.000000,0.000000,0.000000,0.000000,0.000000,0.000000,0.000000,0.000000,0.000000,0.000000,0.000000,0.000000,0.000000,0.000000,0.000000,0.000000,0.000000,0.000000,0.000000,0.000000,0.000000,0.000000,0.000000,0.000000,0.000000,0.000000,0.000000,0.000000,0.000000,0.000000,0.000000,0.000000,0.000000,0.000000,0.000000,0.000000,0.000000,0.000000,0.000000,0.000000,0.000000,0.000000,0.000000,0.000000,0.000000,0.000000,0.000000,0.000000,0.000000,0.000000,0.000000,0.000000,8.000000,102.000000,1.000000
0.057435,0.041876,0.037986,0.026317,0.014648,0.010758,0.010758,-0.004801,-0.016470,-0.028139,-0.032029,-0.039809,-0.043698,-0.055367,-0.063147,-0.070926,-0.090375,-0.090375,-0.082596,-0.086485,-0.078706,-0.086485,-0.082596,-0.074816,-0.063147,-0.067037,-0.082596,-0.086485,-0.094265,-0.094265,-0.086485,-0.090375,-0.094265,-0.102044,-0.105934,-0.105934,-0.094265,-0.094265,-0.090375,-0.105934,-0.105934,-0.113714,-0.102044,-0.105934,-0.105934,-0.113714,-0.113714,-0.109824,-0.105934,-0.105934,-0.109824,-0.113714,-0.121493,-0.121493,-0.113714,-0.117603,-0.117603,-0.129272,-0.133162,-0.133162,-0.121493,-0.113714,-0.113714,-0.125383,-0.133162,-0.125383,-0.117603,-0.121493,-0.133162,-0.137052,-0.129272,-0.129272,-0.117603,-0.113714,-0.121493,-0.121493,-0.125383,-0.109824,-0.109824,-0.109824,-0.113714,-0.121493,-0.129272,-0.125383,-0.113714,-0.105934,-0.109824,-0.121493,-0.129272,-0.109824,-0.102044,-0.102044,-0.098155,-0.102044,-0.105934,-0.078706,-0.028139,0.053545,0.267480,0.520313,0.664233,0.586439,0.403621,0.290819,0.236363,0.205245,0.162458,0.131340,0.119671,0.088553,0.026317,-0.059257,-0.164280,-0.296531,-0.428782,-0.596040,-0.771078,-0.950006,-1.152272,-1.335090,-1.498459,-1.654048,-1.770740,-1.867983,-1.953557,-2.004124,-2.035242,-2.078029,-2.128595,-2.194721,-2.256957,-2.291964,-2.307523,-2.315303,-2.338641,-2.361979,-2.381428,-2.385318,-2.385318,-2.381428,-2.389208,-2.393097,-2.396987,-2.381428,-2.361979,-2.330862,-2.303633,-2.264736,-2.214170,-2.132485,-2.039132,-1.953557,-1.832976,-1.739622,-1.615151,-1.459561,-1.303972,-1.140603,-0.985014,-0.848873,-0.708843,-0.549364,-0.389885,-0.257634,-0.133162,-0.028139,0.065214,0.174127,0.275260,0.368613,0.442518,0.500864,0.539762,0.590328,0.613667,0.648674,0.668123,0.687572,0.714800,0.726469,0.765366,0.788705,0.815933,0.827602,0.858720,0.889838,0.917066,0.936515,0.952073,0.979302,0.990971,1.025978,1.053207,1.084324,1.107663,1.127111,1.150450,1.185457,1.220465,1.243803,1.278811,1.286591,1.313819,1.348826,1.376054,1.395503,1.422731,1.430511,1.442180,1.477187,1.488857,1.512195,1.527754,1.535533,1.535533,1.547203,1.562762,1.566651,1.558872,1.547203,1.539423,1.535533,1.523864,1.512195,1.496636,1.461629,1.430511,1.407172,1.391613,1.352716,1.329378,1.282701,1.243803,1.201016,1.162119,1.119332,1.072655,1.010419,0.963743,0.920956,0.882058,0.843161,0.788705,0.742028,0.687572,0.648674,0.617556,0.574769,0.528093,0.485305,0.446408,0.423070,0.399731,0.372503,0.337496,0.306378,0.275260,0.263591,0.248032,0.220804,0.201355,0.166347,0.150788,0.146899,0.131340,0.123560,0.108001,0.084663,0.069104,0.069104,0.053545,0.053545,0.041876,0.026317,0.014648,0.022427,0.010758,0.010758,-0.004801,-0.000911,-0.012580,-0.004801,-0.004801,-0.008691,-0.012580,-0.028139,0.000000,0.000000,0.000000,0.000000,0.000000,0.000000,0.000000,0.000000,0.000000,0.000000,0.000000,0.000000,0.000000,0.000000,0.000000,0.000000,0.000000,0.000000,0.000000,0.000000,0.000000,0.000000,0.000000,0.000000,0.000000,0.000000,0.000000,0.000000,0.000000,0.000000,0.000000,0.000000,0.000000,0.000000,0.000000,0.000000,0.000000,0.000000,0.000000,0.000000,0.000000,0.000000,0.000000,0.000000,0.000000,0.000000,0.000000,0.000000,0.000000,0.000000,0.000000,0.000000,0.000000,0.000000,0.000000,0.000000,0.000000,0.000000,0.000000,0.000000,0.000000,0.000000,0.000000,0.000000,0.000000,0.000000,0.000000,0.000000,0.000000,0.000000,0.000000,0.000000,0.000000,0.000000,0.000000,0.000000,0.000000,0.000000,0.000000,0.000000,0.000000,0.000000,0.000000,0.000000,0.000000,0.000000,0.000000,0.000000,0.000000,0.000000,0.000000,0.000000,0.000000,0.000000,0.000000,0.000000,0.000000,0.000000,0.000000,0.000000,0.000000,0.000000,0.000000,0.000000,0.000000,0.000000,0.000000,0.000000,0.000000,0.000000,0.000000,0.000000,0.000000,0.000000,0.000000,0.000000,0.000000,0.000000,0.000000,0.000000,0.000000,0.000000,0.000000,0.000000,0.000000,0.000000,0.000000,0.000000,0.000000,0.000000,0.000000,0.000000,0.000000,0.000000,0.000000,0.000000,0.000000,0.000000,0.000000,0.000000,0.000000,0.000000,0.000000,0.000000,8.000000,102.000000,1.000000
4.197776,4.148525,3.986699,3.656011,3.072030,2.269937,1.439699,0.848683,0.546139,0.468744,0.391349,0.271738,0.102876,-0.002662,-0.073021,-0.143380,-0.199668,-0.241883,-0.277063,-0.291135,-0.326314,-0.375565,-0.417781,-0.474068,-0.488140,-0.523320,-0.523320,-0.558499,-0.621822,-0.642930,-0.664038,-0.671074,-0.685146,-0.720325,-0.748469,-0.790684,-0.797720,-0.804756,-0.811792,-0.854007,-0.882151,-0.910295,-0.917331,-0.931402,-0.959546,-0.973618,-1.015833,-1.065085,-1.051013,-1.072121,-1.079156,-1.114336,-1.149516,-1.198767,-1.191731,-1.205803,-1.219875,-1.248018,-1.269126,-1.311341,-1.318377,-1.325413,-1.318377,-1.346521,-1.374665,-1.395772,-1.395772,-1.374665,-1.395772,-1.374665,-1.395772,-1.388737,-1.374665,-1.353557,-1.325413,-1.311341,-1.311341,-1.290234,-1.240982,-1.191731,-1.142480,-1.093228,-1.058049,-1.001761,-0.924366,-0.839936,-0.769576,-0.692181,-0.621822,-0.551463,-0.438889,-0.368530,-0.248919,-0.171524,-0.115237,-0.044878,0.039553,0.116948,0.187307,0.250631,0.278774,0.320990,0.370241,0.412456,0.447636,0.454672,0.454672,0.482816,0.503923,0.539103,0.539103,0.539103,0.560211,0.532067,0.546139,0.574282,0.581318,0.574282,0.560211,0.553175,0.567246,0.581318,0.581318,0.581318,0.581318,0.560211,0.574282,0.588354,0.588354,0.588354,0.581318,0.567246,0.581318,0.588354,0.595390,0.588354,0.574282,0.567246,0.581318,0.595390,0.616498,0.623534,0.616498,0.616498,0.630570,0.637606,0.644641,0.637606,0.623534,0.630570,0.623534,0.644641,0.658713,0.623534,0.616498,0.567246,0.581318,0.574282,0.574282,0.553175,0.539103,0.503923,0.510959,0.517995,0.503923,0.503923,0.482816,0.461708,0.454672,0.475780,0.489851,0.496887,0.489851,0.496887,0.517995,0.525031,0.532067,0.525031,0.496887,0.496887,0.517995,0.532067,0.539103,0.532067,0.510959,0.000000,0.000000,0.000000,0.000000,0.000000,0.000000,0.000000,0.000000,0.000000,0.000000,0.000000,0.000000,0.000000,0.000000,0.000000,0.000000,0.000000,0.000000,0.000000,0.000000,0.000000,0.000000,0.000000,0.000000,0.000000,0.000000,0.000000,0.000000,0.000000,0.000000,0.000000,0.000000,0.000000,0.000000,0.000000,0.000000,0.000000,0.000000,0.000000,0.000000,0.000000,0.000000,0.000000,0.000000,0.000000,0.000000,0.000000,0.000000,0.000000,0.000000,0.000000,0.000000,0.000000,0.000000,0.000000,0.000000,0.000000,0.000000,0.000000,0.000000,0.000000,0.000000,0.000000,0.000000,0.000000,0.000000,0.000000,0.000000,0.000000,0.000000,0.000000,0.000000,0.000000,0.000000,0.000000,0.000000,0.000000,0.000000,0.000000,0.000000,0.000000,0.000000,0.000000,0.000000,0.000000,0.000000,0.000000,0.000000,0.000000,0.000000,0.000000,0.000000,0.000000,0.000000,0.000000,0.000000,0.000000,0.000000,0.000000,0.000000,0.000000,0.000000,0.000000,0.000000,0.000000,0.000000,0.000000,0.000000,0.000000,0.000000,0.000000,0.000000,0.000000,0.000000,0.000000,0.000000,0.000000,0.000000,0.000000,0.000000,0.000000,0.000000,0.000000,0.000000,0.000000,0.000000,0.000000,0.000000,0.000000,0.000000,0.000000,0.000000,0.000000,0.000000,0.000000,0.000000,0.000000,0.000000,0.000000,0.000000,0.000000,0.000000,0.000000,0.000000,0.000000,0.000000,0.000000,0.000000,0.000000,0.000000,0.000000,0.000000,0.000000,0.000000,0.000000,0.000000,0.000000,0.000000,0.000000,0.000000,0.000000,0.000000,0.000000,0.000000,0.000000,0.000000,0.000000,0.000000,0.000000,0.000000,0.000000,0.000000,0.000000,0.000000,0.000000,0.000000,0.000000,0.000000,0.000000,0.000000,0.000000,0.000000,0.000000,0.000000,0.000000,0.000000,0.000000,0.000000,0.000000,0.000000,0.000000,0.000000,0.000000,0.000000,0.000000,0.000000,0.000000,0.000000,0.000000,0.000000,0.000000,0.000000,0.000000,0.000000,0.000000,0.000000,0.000000,0.000000,0.000000,0.000000,0.000000,0.000000,0.000000,0.000000,0.000000,0.000000,0.000000,0.000000,0.000000,0.000000,0.000000,0.000000,0.000000,0.000000,0.000000,0.000000,0.000000,0.000000,0.000000,0.000000,0.000000,0.000000,0.000000,0.000000,0.000000,0.000000,0.000000,0.000000,0.000000,0.000000,0.000000,0.000000,0.000000,0.000000,0.000000,5.000000,102.000000,1.000000
-0.020042,-0.027824,-0.031715,-0.031715,-0.031715,-0.039497,-0.035606,-0.055061,-0.062843,-0.055061,-0.047279,-0.055061,-0.055061,-0.062843,-0.070625,-0.062843,-0.062843,-0.066734,-0.074516,-0.082298,-0.082298,-0.086189,-0.070625,-0.070625,-0.078407,-0.093971,-0.097862,-0.090080,-0.078407,-0.086189,-0.101753,-0.097862,-0.105644,-0.097862,-0.082298,-0.082298,-0.090080,-0.109535,-0.105644,-0.101753,-0.093971,-0.093971,-0.097862,-0.105644,-0.097862,-0.097862,-0.097862,-0.097862,-0.097862,-0.101753,-0.097862,-0.093971,-0.093971,-0.093971,-0.097862,-0.109535,-0.109535,-0.097862,-0.090080,-0.097862,-0.097862,-0.093971,-0.113426,-0.090080,-0.086189,-0.082298,-0.097862,-0.101753,-0.101753,-0.097862,-0.090080,-0.097862,-0.101753,-0.105644,-0.097862,-0.093971,-0.086189,-0.090080,-0.086189,-0.093971,-0.090080,-0.062843,-0.023933,0.038324,0.217310,0.489680,0.680339,0.649211,0.454661,0.306803,0.240656,0.209528,0.170618,0.155054,0.127817,0.092798,0.026651,-0.062843,-0.179573,-0.300194,-0.451943,-0.630929,-0.821588,-1.012247,-1.195124,-1.381892,-1.541423,-1.669826,-1.767102,-1.864377,-1.930524,-1.969434,-2.004453,-2.035581,-2.090055,-2.152311,-2.210676,-2.237913,-2.257368,-2.265150,-2.288496,-2.307951,-2.327406,-2.323515,-2.319624,-2.339079,-2.327406,-2.331297,-2.335188,-2.323515,-2.300169,-2.276823,-2.245695,-2.202894,-2.144529,-2.058927,-1.969434,-1.872159,-1.778775,-1.685390,-1.533641,-1.374110,-1.218470,-1.062830,-0.903299,-0.759332,-0.603692,-0.448052,-0.304085,-0.167900,-0.051170,0.053888,0.147272,0.248438,0.345713,0.423533,0.481898,0.532481,0.579173,0.606410,0.637538,0.672557,0.692012,0.711467,0.738704,0.773723,0.804851,0.824306,0.851543,0.859325,0.890453,0.921581,0.948818,0.972164,0.991619,1.007183,1.034420,1.073330,1.104458,1.131695,1.166714,1.182278,1.205624,1.232861,1.267880,1.302899,1.322354,1.349591,1.365155,1.392392,1.431302,1.454648,1.470212,1.481885,1.501340,1.520795,1.551923,1.559705,1.559705,1.563596,1.551923,1.559705,1.563596,1.555814,1.559705,1.524686,1.501340,1.477994,1.462430,1.427411,1.388501,1.349591,1.310681,1.275662,1.244534,1.209515,1.151150,1.096676,1.046093,1.003292,0.968273,0.921581,0.855434,0.804851,0.754268,0.707576,0.668666,0.629756,0.583064,0.532481,0.481898,0.446879,0.431315,0.388514,0.353495,0.310694,0.295130,0.275675,0.256220,0.232874,0.217310,0.186182,0.162836,0.155054,0.143381,0.135599,0.116144,0.104471,0.085016,0.085016,0.088907,0.073343,0.069452,0.053888,0.042215,0.049997,0.046106,0.042215,0.038324,0.022760,0.022760,0.022760,0.030542,0.022760,0.018868,0.014977,0.007195,0.007195,0.022760,0.022760,0.022760,0.011086,0.000000,0.000000,0.000000,0.000000,0.000000,0.000000,0.000000,0.000000,0.000000,0.000000,0.000000,0.000000,0.000000,0.000000,0.000000,0.000000,0.000000,0.000000,0.000000,0.000000,0.000000,0.000000,0.000000,0.000000,0.000000,0.000000,0.000000,0.000000,0.000000,0.000000,0.000000,0.000000,0.000000,0.000000,0.000000,0.000000,0.000000,0.000000,0.000000,0.000000,0.000000,0.000000,0.000000,0.000000,0.000000,0.000000,0.000000,0.000000,0.000000,0.000000,0.000000,0.000000,0.000000,0.000000,0.000000,0.000000,0.000000,0.000000,0.000000,0.000000,0.000000,0.000000,0.000000,0.000000,0.000000,0.000000,0.000000,0.000000,0.000000,0.000000,0.000000,0.000000,0.000000,0.000000,0.000000,0.000000,0.000000,0.000000,0.000000,0.000000,0.000000,0.000000,0.000000,0.000000,0.000000,0.000000,0.000000,0.000000,0.000000,0.000000,0.000000,0.000000,0.000000,0.000000,0.000000,0.000000,0.000000,0.000000,0.000000,0.000000,0.000000,0.000000,0.000000,0.000000,0.000000,0.000000,0.000000,0.000000,0.000000,0.000000,0.000000,0.000000,0.000000,0.000000,0.000000,0.000000,0.000000,0.000000,0.000000,0.000000,0.000000,0.000000,0.000000,0.000000,0.000000,0.000000,0.000000,0.000000,0.000000,0.000000,0.000000,0.000000,0.000000,0.000000,0.000000,0.000000,0.000000,0.000000,0.000000,0.000000,0.000000,0.000000,0.000000,0.000000,0.000000,0.000000,0.000000,0.000000,0.000000,0.000000,0.000000,0.000000,0.000000,0.000000,0.000000,0.000000,0.000000,0.000000,8.000000,102.000000,1.000000
0.031352,0.023149,0.014946,0.006743,-0.001460,-0.005561,-0.026069,-0.030170,-0.030170,-0.026069,-0.034272,-0.054779,-0.071185,-0.058881,-0.054779,-0.050678,-0.038373,-0.046576,-0.042475,-0.054779,-0.067084,-0.058881,-0.054779,-0.071185,-0.083490,-0.071185,-0.067084,-0.067084,-0.071185,-0.079388,-0.091693,-0.083490,-0.071185,-0.071185,-0.071185,-0.079388,-0.083490,-0.087591,-0.083490,-0.071185,-0.079388,-0.087591,-0.099896,-0.095794,-0.095794,-0.079388,-0.079388,-0.095794,-0.112200,-0.099896,-0.091693,-0.095794,-0.099896,-0.103997,-0.103997,-0.099896,-0.099896,-0.095794,-0.095794,-0.108099,-0.112200,-0.103997,-0.108099,-0.103997,-0.099896,-0.099896,-0.112200,-0.112200,-0.095794,-0.099896,-0.099896,-0.108099,-0.112200,-0.099896,-0.099896,-0.099896,-0.099896,-0.099896,-0.103997,-0.099896,-0.091693,-0.087591,-0.083490,-0.099896,-0.108099,-0.095794,-0.083490,-0.083490,-0.079388,-0.079388,-0.062982,-0.013764,0.101078,0.371777,0.662984,0.745014,0.576852,0.384081,0.293848,0.265138,0.228224,0.183108,0.154397,0.121585,0.084672,0.010845,-0.075287,-0.222941,-0.395204,-0.596177,-0.772542,-0.969414,-1.182692,-1.400071,-1.613349,-1.752800,-1.851237,-1.941470,-2.007094,-2.060413,-2.117834,-2.162951,-2.212169,-2.265488,-2.310605,-2.355721,-2.376229,-2.388533,-2.384432,-2.396736,-2.413142,-2.425447,-2.437751,-2.433650,-2.425447,-2.421345,-2.417244,-2.404939,-2.396736,-2.347518,-2.290097,-2.220372,-2.138342,-2.056312,-1.949673,-1.822526,-1.674872,-1.510812,-1.326244,-1.166286,-0.994023,-0.825861,-0.649497,-0.477234,-0.321377,-0.173723,-0.054779,0.068266,0.183108,0.293848,0.392284,0.478416,0.527634,0.576852,0.626070,0.671187,0.699897,0.708100,0.740912,0.773724,0.806536,0.839348,0.855754,0.880363,0.900871,0.933683,0.974698,0.995205,1.032119,1.048525,1.077235,1.105946,1.146961,1.163367,1.196179,1.228991,1.249498,1.278209,1.302818,1.335630,1.372543,1.397152,1.409457,1.429964,1.466878,1.495588,1.520197,1.524299,1.544806,1.565314,1.581720,1.602227,1.606329,1.606329,1.598126,1.606329,1.598126,1.585821,1.577618,1.553009,1.520197,1.503791,1.479182,1.438167,1.409457,1.352036,1.302818,1.265904,1.212585,1.171570,1.114149,1.060829,1.003408,0.950089,0.917277,0.872160,0.822942,0.757318,0.712202,0.667085,0.634273,0.597360,0.556345,0.507127,0.457908,0.433299,0.396386,0.371777,0.347168,0.310254,0.281544,0.256935,0.232326,0.215920,0.203615,0.170803,0.150296,0.146194,0.133890,0.125687,0.105179,0.096976,0.072367,0.076469,0.076469,0.072367,0.051860,0.035454,0.035454,0.027251,0.027251,0.035454,0.023149,0.002642,-0.005561,0.002642,0.002642,0.010845,-0.001460,-0.009663,-0.009663,-0.021967,-0.009663,-0.005561,-0.005561,-0.017866,-0.026069,-0.013764,-0.017866,-0.005561,-0.001460,0.000000,0.000000,0.000000,0.000000,0.000000,0.000000,0.000000,0.000000,0.000000,0.000000,0.000000,0.000000,0.000000,0.000000,0.000000,0.000000,0.000000,0.000000,0.000000,0.000000,0.000000,0.000000,0.000000,0.000000,0.000000,0.000000,0.000000,0.000000,0.000000,0.000000,0.000000,0.000000,0.000000,0.000000,0.000000,0.000000,0.000000,0.000000,0.000000,0.000000,0.000000,0.000000,0.000000,0.000000,0.000000,0.000000,0.000000,0.000000,0.000000,0.000000,0.000000,0.000000,0.000000,0.000000,0.000000,0.000000,0.000000,0.000000,0.000000,0.000000,0.000000,0.000000,0.000000,0.000000,0.000000,0.000000,0.000000,0.000000,0.000000,0.000000,0.000000,0.000000,0.000000,0.000000,0.000000,0.000000,0.000000,0.000000,0.000000,0.000000,0.000000,0.000000,0.000000,0.000000,0.000000,0.000000,0.000000,0.000000,0.000000,0.000000,0.000000,0.000000,0.000000,0.000000,0.000000,0.000000,0.000000,0.000000,0.000000,0.000000,0.000000,0.000000,0.000000,0.000000,0.000000,0.000000,0.000000,0.000000,0.000000,0.000000,0.000000,0.000000,0.000000,0.000000,0.000000,0.000000,0.000000,0.000000,0.000000,0.000000,0.000000,0.000000,0.000000,0.000000,0.000000,0.000000,0.000000,0.000000,0.000000,0.000000,0.000000,0.000000,0.000000,0.000000,0.000000,0.000000,0.000000,0.000000,0.000000,0.000000,0.000000,0.000000,0.000000,0.000000,0.000000,0.000000,0.000000,0.000000,0.000000,8.000000,102.000000,1.000000
3.032818,2.772268,2.450412,2.051924,1.592130,0.871786,0.028830,-0.783472,-1.166634,-1.304572,-1.304572,-1.243266,-1.151307,-1.013369,-0.752819,-0.461617,-0.093781,0.197421,0.320033,0.289380,0.258727,0.136116,-0.063128,-0.216393,-0.323678,-0.430964,-0.507596,-0.507596,-0.461617,-0.430964,-0.430964,-0.446290,-0.538249,-0.568902,-0.599555,-0.599555,-0.645534,-0.676187,-0.722166,-0.783472,-0.844778,-0.860105,-0.860105,-0.890758,-0.967390,-0.998043,-1.059349,-1.074675,-1.059349,-1.090002,-1.151307,-1.197287,-1.197287,-1.212613,-1.212613,-1.243266,-1.273919,-1.319899,-1.350552,-1.335225,-1.319899,-1.396531,-1.457837,-1.457837,-1.503816,-1.519143,-1.473163,-1.473163,-1.519143,-1.534469,-1.580449,-1.503816,-1.457837,-1.503816,-1.519143,-1.534469,-1.473163,-1.442510,-1.427184,-1.365878,-1.365878,-1.381204,-1.304572,-1.212613,-1.151307,-1.090002,-1.028696,-0.982716,-0.890758,-0.783472,-0.645534,-0.538249,-0.446290,-0.369658,-0.262373,-0.078455,0.028830,0.151442,0.243401,0.274054,0.396665,0.503951,0.580583,0.641889,0.703195,0.703195,0.749174,0.856459,0.917765,0.933092,0.933092,0.917765,0.933092,0.963745,0.979071,0.963745,0.948418,0.887112,0.887112,0.917765,0.917765,0.856459,0.825807,0.795154,0.795154,0.825807,0.871786,0.887112,0.902439,0.887112,0.917765,0.948418,0.933092,0.948418,0.902439,0.887112,0.871786,0.887112,0.871786,0.871786,0.841133,0.841133,0.841133,0.841133,0.902439,0.871786,0.825807,0.810480,0.795154,0.841133,0.841133,0.841133,0.841133,0.779827,0.764501,0.810480,0.825807,0.764501,0.764501,0.703195,0.749174,0.764501,0.795154,0.764501,0.718521,0.703195,0.718521,0.733848,0.779827,0.779827,0.733848,0.703195,0.687868,0.718521,0.764501,0.733848,0.749174,0.718521,0.687868,0.718521,0.779827,0.749174,0.749174,0.718521,0.733848,0.000000,0.000000,0.000000,0.000000,0.000000,0.000000,0.000000,0.000000,0.000000,0.000000,0.000000,0.000000,0.000000,0.000000,0.000000,0.000000,0.000000,0.000000,0.000000,0.000000,0.000000,0.000000,0.000000,0.000000,0.000000,0.000000,0.000000,0.000000,0.000000,0.000000,0.000000,0.000000,0.000000,0.000000,0.000000,0.000000,0.000000,0.000000,0.000000,0.000000,0.000000,0.000000,0.000000,0.000000,0.000000,0.000000,0.000000,0.000000,0.000000,0.000000,0.000000,0.000000,0.000000,0.000000,0.000000,0.000000,0.000000,0.000000,0.000000,0.000000,0.000000,0.000000,0.000000,0.000000,0.000000,0.000000,0.000000,0.000000,0.000000,0.000000,0.000000,0.000000,0.000000,0.000000,0.000000,0.000000,0.000000,0.000000,0.000000,0.000000,0.000000,0.000000,0.000000,0.000000,0.000000,0.000000,0.000000,0.000000,0.000000,0.000000,0.000000,0.000000,0.000000,0.000000,0.000000,0.000000,0.000000,0.000000,0.000000,0.000000,0.000000,0.000000,0.000000,0.000000,0.000000,0.000000,0.000000,0.000000,0.000000,0.000000,0.000000,0.000000,0.000000,0.000000,0.000000,0.000000,0.000000,0.000000,0.000000,0.000000,0.000000,0.000000,0.000000,0.000000,0.000000,0.000000,0.000000,0.000000,0.000000,0.000000,0.000000,0.000000,0.000000,0.000000,0.000000,0.000000,0.000000,0.000000,0.000000,0.000000,0.000000,0.000000,0.000000,0.000000,0.000000,0.000000,0.000000,0.000000,0.000000,0.000000,0.000000,0.000000,0.000000,0.000000,0.000000,0.000000,0.000000,0.000000,0.000000,0.000000,0.000000,0.000000,0.000000,0.000000,0.000000,0.000000,0.000000,0.000000,0.000000,0.000000,0.000000,0.000000,0.000000,0.000000,0.000000,0.000000,0.000000,0.000000,0.000000,0.000000,0.000000,0.000000,0.000000,0.000000,0.000000,0.000000,0.000000,0.000000,0.000000,0.000000,0.000000,0.000000,0.000000,0.000000,0.000000,0.000000,0.000000,0.000000,0.000000,0.000000,0.000000,0.000000,0.000000,0.000000,0.000000,0.000000,0.000000,0.000000,0.000000,0.000000,0.000000,0.000000,0.000000,0.000000,0.000000,0.000000,0.000000,0.000000,0.000000,0.000000,0.000000,0.000000,0.000000,0.000000,0.000000,0.000000,0.000000,0.000000,0.000000,0.000000,0.000000,0.000000,0.000000,0.000000,0.000000,0.000000,0.000000,0.000000,0.000000,0.000000,0.000000,0.000000,0.000000,0.000000,0.000000,5.000000,102.000000,1.000000
3.526843,3.166829,2.626808,1.966781,1.186750,0.271714,-0.808330,-1.663364,-2.188385,-2.323390,-2.263388,-2.143383,-2.023378,-1.918374,-1.783368,-1.573360,-1.333350,-1.003337,-0.778328,-0.628322,-0.553319,-0.538319,-0.568320,-0.598321,-0.598321,-0.688325,-0.808330,-0.823330,-0.853331,-0.778328,-0.673324,-0.643323,-0.538319,-0.523318,-0.493317,-0.448315,-0.448315,-0.433315,-0.493317,-0.508318,-0.538319,-0.538319,-0.508318,-0.538319,-0.553319,-0.613322,-0.658324,-0.613322,-0.628322,-0.643323,-0.688325,-0.733327,-0.778328,-0.778328,-0.763328,-0.793329,-0.808330,-0.898333,-0.913334,-0.928334,-0.943335,-0.943335,-0.958336,-1.018338,-1.078340,-1.063340,-1.033339,-1.093341,-1.093341,-1.153343,-1.183345,-1.183345,-1.183345,-1.183345,-1.168344,-1.198345,-1.273348,-1.228346,-1.183345,-1.108342,-1.123342,-1.108342,-1.093341,-1.033339,-0.958336,-0.913334,-0.838331,-0.838331,-0.748327,-0.643323,-0.523318,-0.418314,-0.373312,-0.313310,-0.253307,-0.148303,-0.028298,0.046705,0.106707,0.166709,0.226712,0.316715,0.376718,0.451721,0.526724,0.526724,0.541724,0.601727,0.646729,0.691730,0.691730,0.691730,0.676730,0.721731,0.796734,0.796734,0.781734,0.766733,0.796734,0.826736,0.811735,0.856737,0.856737,0.841736,0.826736,0.871737,0.916739,0.901739,0.871737,0.871737,0.841736,0.871737,0.871737,0.946740,0.886738,0.901739,0.856737,0.871737,0.916739,0.931740,0.946740,0.886738,0.871737,0.901739,0.916739,0.931740,0.916739,0.916739,0.856737,0.886738,0.931740,0.886738,0.901739,0.886738,0.886738,0.901739,0.901739,0.901739,0.901739,0.871737,0.856737,0.901739,0.886738,0.901739,0.901739,0.871737,0.841736,0.856737,0.871737,0.871737,0.871737,0.811735,0.796734,0.826736,0.796734,0.826736,0.841736,0.811735,0.781734,0.781734,0.826736,0.856737,0.811735,0.781734,0.751733,0.000000,0.000000,0.000000,0.000000,0.000000,0.000000,0.000000,0.000000,0.000000,0.000000,0.000000,0.000000,0.000000,0.000000,0.000000,0.000000,0.000000,0.000000,0.000000,0.000000,0.000000,0.000000,0.000000,0.000000,0.000000,0.000000,0.000000,0.000000,0.000000,0.000000,0.000000,0.000000,0.000000,0.000000,0.000000,0.000000,0.000000,0.000000,0.000000,0.000000,0.000000,0.000000,0.000000,0.000000,0.000000,0.000000,0.000000,0.000000,0.000000,0.000000,0.000000,0.000000,0.000000,0.000000,0.000000,0.000000,0.000000,0.000000,0.000000,0.000000,0.000000,0.000000,0.000000,0.000000,0.000000,0.000000,0.000000,0.000000,0.000000,0.000000,0.000000,0.000000,0.000000,0.000000,0.000000,0.000000,0.000000,0.000000,0.000000,0.000000,0.000000,0.000000,0.000000,0.000000,0.000000,0.000000,0.000000,0.000000,0.000000,0.000000,0.000000,0.000000,0.000000,0.000000,0.000000,0.000000,0.000000,0.000000,0.000000,0.000000,0.000000,0.000000,0.000000,0.000000,0.000000,0.000000,0.000000,0.000000,0.000000,0.000000,0.000000,0.000000,0.000000,0.000000,0.000000,0.000000,0.000000,0.000000,0.000000,0.000000,0.000000,0.000000,0.000000,0.000000,0.000000,0.000000,0.000000,0.000000,0.000000,0.000000,0.000000,0.000000,0.000000,0.000000,0.000000,0.000000,0.000000,0.000000,0.000000,0.000000,0.000000,0.000000,0.000000,0.000000,0.000000,0.000000,0.000000,0.000000,0.000000,0.000000,0.000000,0.000000,0.000000,0.000000,0.000000,0.000000,0.000000,0.000000,0.000000,0.000000,0.000000,0.000000,0.000000,0.000000,0.000000,0.000000,0.000000,0.000000,0.000000,0.000000,0.000000,0.000000,0.000000,0.000000,0.000000,0.000000,0.000000,0.000000,0.000000,0.000000,0.000000,0.000000,0.000000,0.000000,0.000000,0.000000,0.000000,0.000000,0.000000,0.000000,0.000000,0.000000,0.000000,0.000000,0.000000,0.000000,0.000000,0.000000,0.000000,0.000000,0.000000,0.000000,0.000000,0.000000,0.000000,0.000000,0.000000,0.000000,0.000000,0.000000,0.000000,0.000000,0.000000,0.000000,0.000000,0.000000,0.000000,0.000000,0.000000,0.000000,0.000000,0.000000,0.000000,0.000000,0.000000,0.000000,0.000000,0.000000,0.000000,0.000000,0.000000,0.000000,0.000000,0.000000,0.000000,0.000000,0.000000,0.000000,0.000000,0.000000,0.000000,0.000000,0.000000,0.000000,0.000000,5.000000,102.000000,1.000000
0.236543,0.203319,0.192244,0.181169,0.203319,0.214393,0.247617,0.258692,0.236543,0.214393,0.214393,0.214393,0.236543,0.225468,0.225468,0.203319,0.203319,0.214393,0.214393,0.203319,0.170095,0.114722,0.092572,0.092572,0.092572,0.070423,0.059349,0.026125,0.015050,-0.029248,-0.007099,-0.051398,-0.084621,-0.106771,-0.117845,-0.095696,-0.051398,-0.062472,-0.051398,-0.029248,-0.029248,-0.018174,-0.029248,-0.029248,-0.051398,-0.084621,-0.062472,-0.040323,-0.007099,-0.018174,-0.029248,-0.062472,-0.084621,-0.051398,-0.018174,0.003976,-0.040323,-0.040323,-0.062472,-0.029248,-0.018174,-0.040323,-0.062472,-0.062472,-0.040323,-0.040323,-0.007099,-0.018174,-0.029248,0.003976,-0.018174,0.026125,0.103647,0.225468,0.646303,1.421527,2.052780,1.953109,1.421527,1.033915,0.912094,0.889945,0.834572,0.790273,0.790273,0.679527,0.513408,0.314065,-0.040323,-0.450084,-0.893069,-1.457874,-1.989456,-2.443515,-2.831127,-2.919724,-2.842202,-2.676082,-2.543187,-2.554262,-2.676082,-2.941873,-3.373783,-3.838917,-4.215454,-4.470171,-4.514469,-4.326201,-3.938589,-3.395933,-2.797903,-2.155575,-1.590770,-1.203158,-0.893069,-0.671576,-0.516532,-0.394711,-0.261815,-0.151069,-0.029248,0.037199,0.092572,0.081498,0.114722,0.170095,0.236543,0.247617,0.258692,0.258692,0.280841,0.302990,0.347289,0.380513,0.369438,0.358363,0.358363,0.402662,0.435886,0.413736,0.402662,0.424811,0.446960,0.469110,0.491259,0.513408,0.513408,0.513408,0.524483,0.590930,0.624154,0.624154,0.646303,0.635229,0.646303,0.701677,0.757050,0.757050,0.745975,0.757050,0.790273,0.834572,0.878870,0.867796,0.878870,0.856721,0.901020,0.923169,0.956393,0.934244,0.923169,0.912094,0.912094,0.901020,0.923169,0.912094,0.867796,0.834572,0.834572,0.834572,0.845647,0.812423,0.768124,0.701677,0.690602,0.668453,0.668453,0.635229,0.579856,0.513408,0.491259,0.458035,0.435886,0.391587,0.369438,0.314065,0.302990,0.269766,0.302990,0.280841,0.236543,0.181169,0.192244,0.203319,0.214393,0.192244,0.181169,0.159020,0.181169,0.159020,0.170095,0.159020,0.136871,0.125796,0.114722,0.136871,0.181169,0.170095,0.159020,0.147946,0.136871,0.147946,0.159020,0.181169,0.181169,0.159020,0.125796,0.147946,0.192244,0.159020,0.114722,0.125796,0.114722,0.136871,0.147946,0.125796,0.114722,0.092572,0.092572,0.103647,0.114722,0.092572,0.103647,0.070423,0.059349,0.092572,0.103647,0.103647,0.070423,0.059349,0.070423,0.092572,0.125796,0.114722,0.092572,0.059349,0.081498,0.081498,0.114722,0.114722,0.081498,0.070423,0.081498,0.081498,0.114722,0.114722,0.059349,0.048274,0.059349,0.081498,0.092572,0.092572,0.048274,0.000000,0.000000,0.000000,0.000000,0.000000,0.000000,0.000000,0.000000,0.000000,0.000000,0.000000,0.000000,0.000000,0.000000,0.000000,0.000000,0.000000,0.000000,0.000000,0.000000,0.000000,0.000000,0.000000,0.000000,0.000000,0.000000,0.000000,0.000000,0.000000,0.000000,0.000000,0.000000,0.000000,0.000000,0.000000,0.000000,0.000000,0.000000,0.000000,0.000000,0.000000,0.000000,0.000000,0.000000,0.000000,0.000000,0.000000,0.000000,0.000000,0.000000,0.000000,0.000000,0.000000,0.000000,0.000000,0.000000,0.000000,0.000000,0.000000,0.000000,0.000000,0.000000,0.000000,0.000000,0.000000,0.000000,0.000000,0.000000,0.000000,0.000000,0.000000,0.000000,0.000000,0.000000,0.000000,0.000000,0.000000,0.000000,0.000000,0.000000,0.000000,0.000000,0.000000,0.000000,0.000000,0.000000,0.000000,0.000000,0.000000,0.000000,0.000000,0.000000,0.000000,0.000000,0.000000,0.000000,0.000000,0.000000,0.000000,0.000000,0.000000,0.000000,0.000000,0.000000,0.000000,0.000000,0.000000,0.000000,0.000000,0.000000,0.000000,0.000000,0.000000,0.000000,0.000000,0.000000,0.000000,0.000000,0.000000,0.000000,0.000000,0.000000,0.000000,0.000000,0.000000,0.000000,0.000000,0.000000,0.000000,0.000000,0.000000,0.000000,0.000000,0.000000,0.000000,0.000000,0.000000,0.000000,0.000000,0.000000,0.000000,0.000000,0.000000,0.000000,0.000000,0.000000,0.000000,0.000000,0.000000,0.000000,0.000000,0.000000,0.000000,0.000000,0.000000,0.000000,0.000000,7.000000,102.000000,1.000000
-0.003005,-0.003005,0.005081,0.017210,0.005081,0.001038,-0.023220,-0.027263,-0.011091,-0.015134,-0.015134,-0.027263,-0.031306,-0.043435,-0.035349,-0.019177,-0.039392,-0.043435,-0.051521,-0.051521,-0.039392,-0.047478,-0.051521,-0.055564,-0.063650,-0.075779,-0.063650,-0.063650,-0.063650,-0.067693,-0.079822,-0.079822,-0.079822,-0.067693,-0.079822,-0.075779,-0.083865,-0.087908,-0.087908,-0.075779,-0.075779,-0.083865,-0.091951,-0.100037,-0.091951,-0.075779,-0.095994,-0.083865,-0.095994,-0.100037,-0.087908,-0.075779,-0.087908,-0.083865,-0.095994,-0.087908,-0.083865,-0.079822,-0.079822,-0.091951,-0.100037,-0.100037,-0.087908,-0.075779,-0.079822,-0.087908,-0.095994,-0.091951,-0.075779,-0.071736,-0.087908,-0.083865,-0.091951,-0.095994,-0.087908,-0.071736,-0.083865,-0.083865,-0.091951,-0.087908,-0.083865,-0.087908,-0.083865,-0.083865,-0.091951,-0.095994,-0.095994,-0.079822,-0.087908,-0.091951,-0.091951,-0.091951,-0.083865,-0.075779,-0.087908,-0.087908,-0.087908,-0.095994,-0.091951,-0.071736,-0.071736,-0.067693,-0.039392,0.041468,0.267876,0.542800,0.651961,0.530671,0.352779,0.259790,0.239575,0.227446,0.187016,0.154672,0.114242,0.057640,-0.011091,-0.091951,-0.229412,-0.387089,-0.569024,-0.755002,-0.912679,-1.062270,-1.244205,-1.418054,-1.571688,-1.692978,-1.785967,-1.858741,-1.927472,-1.975988,-2.020461,-2.073020,-2.121536,-2.170052,-2.234740,-2.275170,-2.323686,-2.327729,-2.347944,-2.360073,-2.380288,-2.408589,-2.416675,-2.424761,-2.420718,-2.412632,-2.412632,-2.404546,-2.404546,-2.380288,-2.331772,-2.271127,-2.214525,-2.145794,-2.081106,-1.992160,-1.891085,-1.785967,-1.660634,-1.531258,-1.365495,-1.183560,-1.005668,-0.839905,-0.678185,-0.532637,-0.387089,-0.245584,-0.116209,-0.011091,0.098070,0.187016,0.275962,0.368951,0.461940,0.518542,0.567058,0.591316,0.619617,0.647918,0.676219,0.708563,0.740907,0.761122,0.773251,0.793466,0.821767,0.850068,0.878369,0.894541,0.918799,0.934971,0.963272,1.007745,1.023917,1.044132,1.068390,1.088605,1.116906,1.149250,1.173508,1.193723,1.226067,1.246282,1.278626,1.315013,1.327142,1.355443,1.371615,1.399916,1.424174,1.460561,1.480776,1.505034,1.517163,1.533335,1.569722,1.589937,1.602066,1.606109,1.598023,1.602066,1.606109,1.618238,1.598023,1.593980,1.565679,1.553550,1.533335,1.517163,1.488862,1.448432,1.412045,1.375658,1.343314,1.306927,1.254368,1.189680,1.133078,1.072433,1.027960,0.999659,0.939014,0.874326,0.817724,0.777294,0.724735,0.684305,0.635789,0.591316,0.542800,0.494284,0.457897,0.441725,0.397252,0.364908,0.332564,0.304263,0.288091,0.271919,0.235532,0.211274,0.178930,0.166801,0.150629,0.142543,0.126371,0.114242,0.094027,0.081898,0.089984,0.085941,0.073812,0.057640,0.041468,0.037425,0.045511,0.045511,0.053597,0.017210,0.017210,0.017210,0.017210,0.025296,0.021253,0.009124,0.005081,-0.007048,0.001038,0.009124,0.000000,0.000000,0.000000,0.000000,0.000000,0.000000,0.000000,0.000000,0.000000,0.000000,0.000000,0.000000,0.000000,0.000000,0.000000,0.000000,0.000000,0.000000,0.000000,0.000000,0.000000,0.000000,0.000000,0.000000,0.000000,0.000000,0.000000,0.000000,0.000000,0.000000,0.000000,0.000000,0.000000,0.000000,0.000000,0.000000,0.000000,0.000000,0.000000,0.000000,0.000000,0.000000,0.000000,0.000000,0.000000,0.000000,0.000000,0.000000,0.000000,0.000000,0.000000,0.000000,0.000000,0.000000,0.000000,0.000000,0.000000,0.000000,0.000000,0.000000,0.000000,0.000000,0.000000,0.000000,0.000000,0.000000,0.000000,0.000000,0.000000,0.000000,0.000000,0.000000,0.000000,0.000000,0.000000,0.000000,0.000000,0.000000,0.000000,0.000000,0.000000,0.000000,0.000000,0.000000,0.000000,0.000000,0.000000,0.000000,0.000000,0.000000,0.000000,0.000000,0.000000,0.000000,0.000000,0.000000,0.000000,0.000000,0.000000,0.000000,0.000000,0.000000,0.000000,0.000000,0.000000,0.000000,0.000000,0.000000,0.000000,0.000000,0.000000,0.000000,0.000000,0.000000,0.000000,0.000000,0.000000,0.000000,0.000000,0.000000,0.000000,0.000000,0.000000,0.000000,0.000000,0.000000,0.000000,0.000000,0.000000,0.000000,0.000000,0.000000,0.000000,0.000000,0.000000,0.000000,0.000000,0.000000,8.000000,102.000000,1.000000
0.309081,0.296845,0.296845,0.272373,0.260137,0.260137,0.272373,0.247902,0.260137,0.223430,0.186722,0.174487,0.211194,0.223430,0.211194,0.162251,0.162251,0.186722,0.174487,0.198958,0.186722,0.150015,0.125543,0.174487,0.174487,0.198958,0.186722,0.186722,0.162251,0.198958,0.247902,0.260137,0.247902,0.235666,0.162251,0.150015,0.162251,0.150015,0.088836,0.064364,0.039892,0.039892,0.039892,0.027656,-0.009051,-0.033523,-0.131410,-0.119174,-0.119174,-0.143645,-0.155881,-0.204825,-0.217061,-0.192589,-0.119174,-0.070230,-0.057995,-0.106938,-0.155881,-0.106938,-0.082466,-0.082466,-0.094702,-0.131410,-0.143645,-0.106938,-0.057995,-0.070230,-0.094702,-0.082466,-0.094702,-0.106938,-0.094702,-0.094702,-0.057995,-0.106938,-0.106938,-0.119174,-0.082466,-0.057995,-0.057995,-0.070230,-0.106938,-0.082466,-0.082466,-0.045759,-0.045759,-0.070230,-0.070230,-0.094702,-0.033523,0.003185,0.039892,0.064364,0.247902,0.712864,1.655024,2.621656,2.768486,2.156694,1.495958,1.239005,1.165590,1.116647,0.994288,0.920873,0.786279,0.663920,0.419203,0.052128,-0.461777,-1.073570,-1.575239,-1.966787,-2.138088,-2.187032,-2.174796,-2.076909,-2.040202,-2.162560,-2.517400,-3.153664,-3.802164,-4.413956,-4.854446,-5.086927,-5.074692,-4.793267,-4.377248,-3.740984,-3.006834,-2.223739,-1.648655,-1.269343,-0.987919,-0.816617,-0.682023,-0.498485,-0.363891,-0.266004,-0.168117,-0.119174,-0.094702,-0.045759,0.003185,0.027656,0.064364,0.039892,0.052128,0.076600,0.113307,0.162251,0.150015,0.125543,0.137779,0.150015,0.198958,0.211194,0.211194,0.186722,0.186722,0.211194,0.247902,0.260137,0.284609,0.272373,0.247902,0.284609,0.309081,0.333553,0.333553,0.309081,0.333553,0.345788,0.394732,0.406968,0.394732,0.419203,0.431439,0.419203,0.480383,0.492619,0.529326,0.517090,0.492619,0.517090,0.553798,0.566034,0.578269,0.517090,0.541562,0.566034,0.602741,0.639449,0.578269,0.602741,0.590505,0.627213,0.614977,0.639449,0.639449,0.614977,0.602741,0.627213,0.639449,0.651685,0.627213,0.566034,0.590505,0.590505,0.566034,0.566034,0.566034,0.529326,0.492619,0.468147,0.480383,0.455911,0.431439,0.406968,0.345788,0.382496,0.382496,0.394732,0.382496,0.358024,0.333553,0.345788,0.345788,0.370260,0.370260,0.333553,0.321317,0.333553,0.382496,0.358024,0.382496,0.333553,0.321317,0.321317,0.382496,0.345788,0.321317,0.333553,0.296845,0.296845,0.321317,0.333553,0.296845,0.284609,0.260137,0.260137,0.284609,0.272373,0.272373,0.235666,0.211194,0.260137,0.247902,0.260137,0.247902,0.198958,0.174487,0.198958,0.198958,0.198958,0.186722,0.186722,0.150015,0.150015,0.186722,0.186722,0.186722,0.174487,0.150015,0.162251,0.223430,0.186722,0.186722,0.162251,0.125543,0.150015,0.186722,0.186722,0.162251,0.137779,0.113307,0.137779,0.137779,0.162251,0.150015,0.137779,0.000000,0.000000,0.000000,0.000000,0.000000,0.000000,0.000000,0.000000,0.000000,0.000000,0.000000,0.000000,0.000000,0.000000,0.000000,0.000000,0.000000,0.000000,0.000000,0.000000,0.000000,0.000000,0.000000,0.000000,0.000000,0.000000,0.000000,0.000000,0.000000,0.000000,0.000000,0.000000,0.000000,0.000000,0.000000,0.000000,0.000000,0.000000,0.000000,0.000000,0.000000,0.000000,0.000000,0.000000,0.000000,0.000000,0.000000,0.000000,0.000000,0.000000,0.000000,0.000000,0.000000,0.000000,0.000000,0.000000,0.000000,0.000000,0.000000,0.000000,0.000000,0.000000,0.000000,0.000000,0.000000,0.000000,0.000000,0.000000,0.000000,0.000000,0.000000,0.000000,0.000000,0.000000,0.000000,0.000000,0.000000,0.000000,0.000000,0.000000,0.000000,0.000000,0.000000,0.000000,0.000000,0.000000,0.000000,0.000000,0.000000,0.000000,0.000000,0.000000,0.000000,0.000000,0.000000,0.000000,0.000000,0.000000,0.000000,0.000000,0.000000,0.000000,0.000000,0.000000,0.000000,0.000000,0.000000,0.000000,0.000000,0.000000,0.000000,0.000000,0.000000,0.000000,0.000000,0.000000,0.000000,0.000000,0.000000,0.000000,0.000000,0.000000,0.000000,0.000000,0.000000,0.000000,0.000000,0.000000,0.000000,0.000000,0.000000,0.000000,0.000000,0.000000,0.000000,0.000000,0.000000,0.000000,7.000000,102.000000,1.000000
