2.994650,2.419056,1.673509,2.371101,2.251443,2.672115,2.358019,2.718145,2.797341,2.609049,2.074094,1.332168,0.233734,-0.998387,-1.279083,-1.046247,-1.464592,-1.436459,-1.286546,-0.926568,-0.675040,-0.732174,-0.759655,-0.661600,-0.565075,-0.383221,-0.379403,-0.175875,-0.208767,-0.173855,-0.118997,-0.122270,-0.066555,-0.002799,0.036632,0.167011,0.070223,0.176052,0.226364,0.300403,0.402501,0.386501,0.473679,0.582096,0.511520,0.615994,0.587609,0.575291,0.569282,0.507587,0.483312,0.358590,0.286326,0.235104,0.047441,0.083929,-0.094977,-0.059918,-0.150056,-0.266542,-0.198852,-0.295898,-0.317086,-0.302287,-0.379007,-0.326018,-0.395674,-0.329286,-0.369752,-0.401346,-0.342284,-0.363129,-0.335479,-0.272848,-0.327449,-0.235566,-0.336356,-0.262197,-0.294577,-0.362928,-0.302176,-0.419717,-0.384372,-0.390085,-0.465109,-0.386775,-0.523720,-0.460378,-0.510718,-0.587699,-0.518355,-0.598041,-0.530330,-0.562131,-0.686282,-0.586804,-0.666312,-0.610394,-0.593069,-0.671164,-0.577917,-0.693644,-0.639031,-0.658695,-0.705913,-0.627992,-0.677797,-0.650162,-0.627765,-0.637366,-0.557307,-0.666332,-0.583602,-0.625557,-0.686011,-0.610348,-0.579963,-0.535296,-0.449832,-0.385647,0.065753,1.284343,5.061435,3.636579,1.613649,1.981459,1.699582,1.965362,1.861706,1.791889,1.665043,1.345468,0.845189,0.299095,-0.464052,-1.193356,-1.311940,-0.607240,-0.733183,-0.957238,-0.854116,-0.591222,-0.713369,-0.823113,-0.931197,-0.821023,-0.899186,-0.757681,-0.689225,-0.626810,-0.599582,-0.583725,-0.548381,-0.482392,-0.523505,-0.370306,-0.442688,-0.318502,-0.344427,-0.307384,-0.168007,-0.182334,-0.075422,0.039134,0.034550,0.192148,0.125464,0.259228,0.188642,0.192854,0.190755,0.185060,0.122667,0.168572,-0.013383,0.138120,-0.127978,-0.040948,-0.206938,-0.129258,-0.275988,-0.196202,-0.394032,-0.101447,-0.622350,0.000000,0.000000,8.000000
3.876697,3.112599,1.910504,2.408679,2.045188,2.476072,2.095074,2.196241,1.818521,1.426856,0.765760,0.078434,-0.864530,-1.446685,-0.962246,-0.488449,-0.913993,-0.924560,-0.683176,-0.557277,-0.773751,-0.873045,-0.887505,-0.820991,-0.865228,-0.646334,-0.648397,-0.540457,-0.559770,-0.514339,-0.447851,-0.451152,-0.384783,-0.307189,-0.344018,-0.193954,-0.299598,-0.104690,-0.073224,-0.039104,0.141262,0.150181,0.274887,0.314827,0.334641,0.418037,0.318797,0.358630,0.352299,0.283795,0.325634,0.190090,0.208819,0.157506,-0.012330,0.030031,-0.106715,-0.062748,-0.170561,-0.191511,-0.178038,-0.210688,-0.203525,-0.254670,-0.254285,-0.179719,-0.242289,-0.168846,-0.182713,-0.231101,-0.117486,-0.227401,-0.164976,-0.199670,-0.200074,-0.132914,-0.213939,-0.171757,-0.256897,-0.283347,-0.216942,-0.309655,-0.290527,-0.285236,-0.361136,-0.285906,-0.410216,-0.369503,-0.375003,-0.460526,-0.404357,-0.451482,-0.439478,-0.428807,-0.480906,-0.385532,-0.558469,-0.477824,-0.481224,-0.569692,-0.454011,-0.545847,-0.422843,-0.486652,-0.515762,-0.421736,-0.558364,-0.448749,-0.467885,-0.438072,-0.447894,-0.487802,-0.460839,-0.353852,-0.440809,-0.225483,-0.309367,0.209396,1.129060,5.439246,4.273407,1.680399,2.249741,1.849741,2.112985,1.835478,1.795364,1.633578,1.296732,0.453748,-0.091390,-1.183079,-1.891414,-1.639206,-1.043446,-0.881849,-0.741669,-0.521000,-0.167237,-0.346291,-0.559244,-0.774014,-0.652050,-0.640206,-0.678341,-0.644411,-0.670920,-0.643494,-0.662621,-0.750955,-0.632151,-0.746006,-0.578821,-0.655379,-0.553950,-0.490002,-0.473029,-0.382149,-0.293043,-0.287130,-0.054756,-0.132943,0.164552,0.152182,0.276725,0.346254,0.368885,0.354290,0.426514,0.269372,0.466164,0.272939,0.409706,0.213467,0.294133,0.106310,0.063873,-0.102674,0.044390,-0.322179,0.064124,-0.672883,0.000000,0.000000,0.000000,0.000000,0.000000,8.000000
3.936459,2.925092,1.800811,2.316668,1.909709,2.207990,1.767697,1.893871,1.525419,0.976474,0.186975,-0.495181,-1.662207,-1.683115,-1.200793,-0.769400,-0.743355,-0.504166,-0.209996,-0.095230,-0.416498,-0.572778,-0.659403,-0.477109,-0.610954,-0.522423,-0.581069,-0.543040,-0.544803,-0.631687,-0.570922,-0.596131,-0.562499,-0.486618,-0.540124,-0.365886,-0.408182,-0.304734,-0.217965,-0.204541,-0.025358,-0.002762,0.132950,0.306764,0.279661,0.467234,0.432522,0.466170,0.498764,0.412994,0.484863,0.461106,0.418553,0.423342,0.300585,0.331330,0.100577,0.093314,0.045410,-0.051214,-0.061348,-0.150910,-0.109910,-0.120345,-0.242757,-0.128651,-0.178994,-0.173029,-0.222416,-0.291412,-0.249569,-0.301678,-0.237069,-0.223499,-0.447859,-0.298897,-0.266235,-0.266068,-0.287057,-0.479563,-0.398069,-0.422579,-0.458713,-0.502153,-0.512018,-0.424413,-0.552487,-0.571430,-0.548016,-0.582412,-0.476804,-0.627953,-0.544816,-0.489025,-0.576014,-0.511114,-0.576886,-0.549662,-0.518249,-0.595720,-0.508766,-0.554389,-0.516939,-0.551807,-0.598903,-0.523664,-0.613063,-0.544737,-0.418024,-0.477292,-0.351078,-0.547938,-0.443053,-0.484243,-0.450181,-0.424587,-0.305362,-0.278776,0.049809,0.328959,3.700859,5.588709,2.286417,2.046897,1.749606,1.980021,1.741134,1.703593,1.527870,1.355004,0.782192,0.030100,-0.649533,-1.666511,-2.301156,-1.909754,-1.621449,-1.539009,-1.593311,-1.175309,-0.716406,-0.613382,-0.589997,-0.472489,-0.389343,-0.170325,-0.095246,-0.040594,-0.215969,-0.018381,0.007196,-0.037803,-0.132466,-0.180615,-0.256047,-0.144629,-0.237739,-0.256129,-0.414450,-0.240802,-0.363206,-0.231468,-0.174927,-0.083578,-0.076655,-0.020426,0.027702,0.360673,0.214380,0.367715,0.412061,0.666694,0.658079,0.629904,0.604961,0.659830,0.510596,0.728801,0.359304,0.655113,0.285661,0.613260,-0.078560,0.000000,0.000000,0.000000,0.000000,8.000000
4.032330,3.314440,1.163092,1.865235,1.381971,1.753113,1.490309,1.429228,1.326750,1.095447,0.544988,0.078910,-0.762245,-1.450998,-2.192407,-1.763434,-1.397763,-1.311111,-1.295302,-1.122056,-0.737353,-0.456636,-0.737187,-0.685756,-0.826913,-0.660173,-0.541506,-0.562085,-0.518377,-0.431605,-0.444045,-0.332410,-0.371159,-0.274317,-0.340851,-0.273117,-0.214645,-0.234656,-0.131609,-0.076536,-0.039456,0.019481,-0.002931,0.181955,0.226409,0.268365,0.304999,0.300979,0.384361,0.418238,0.524891,0.627590,0.532966,0.633547,0.573252,0.597380,0.533893,0.367686,0.351406,0.156836,-0.006858,-0.028776,-0.160647,-0.108739,-0.310317,-0.282964,-0.295971,-0.328683,-0.287446,-0.340213,-0.381856,-0.343170,-0.417646,-0.369354,-0.497641,-0.438218,-0.489400,-0.519852,-0.458045,-0.535470,-0.564211,-0.546020,-0.657345,-0.606267,-0.728198,-0.692992,-0.670242,-0.700693,-0.661587,-0.719063,-0.702929,-0.703864,-0.762425,-0.651043,-0.723498,-0.690276,-0.688361,-0.748923,-0.681018,-0.699056,-0.729794,-0.690831,-0.711783,-0.600803,-0.673130,-0.569201,-0.681440,-0.660322,-0.646336,-0.613113,-0.516160,-0.480172,-0.608895,-0.387760,-0.508871,-0.434673,-0.497319,-0.452003,-0.469042,-0.361168,-0.417424,0.020255,0.607181,4.484526,4.814761,1.694072,1.930129,1.656003,1.891658,1.600943,1.657778,1.574402,1.389925,0.972110,0.358020,-0.406331,-1.184310,-1.998864,-1.469079,-1.371005,-1.338614,-1.294488,-0.843460,-0.428965,-0.523285,-0.650565,-0.591249,-0.574374,-0.218486,-0.336703,-0.180950,-0.255862,-0.165694,-0.138769,-0.126347,-0.064705,0.051287,0.013248,0.177498,0.042730,0.172936,0.172275,0.347040,0.401237,0.476422,0.467960,0.600458,0.547967,0.736669,0.629327,0.858932,0.819631,0.905509,0.861984,0.858359,0.843600,1.043326,0.755113,0.907372,0.556177,0.651226,0.344974,0.594933,0.154246,0.495159,-0.359142,0.000000,8.000000
3.921212,3.050922,1.296875,1.900210,1.500330,1.779858,1.352150,1.628706,1.264804,1.099718,0.415045,-0.260002,-1.083581,-2.018526,-2.022525,-1.500673,-1.655185,-1.496589,-1.324912,-0.671646,-0.679757,-0.810186,-0.822945,-0.798197,-0.532756,-0.438866,-0.471571,-0.356805,-0.444364,-0.272828,-0.354414,-0.247506,-0.171455,-0.141100,-0.060139,-0.056994,-0.087846,0.040999,0.080024,0.268272,0.263530,0.331641,0.385219,0.425003,0.506437,0.539934,0.592323,0.749362,0.677817,0.787392,0.669641,0.716146,0.841412,0.722019,0.672798,0.566555,0.388401,0.345890,0.269927,0.238187,0.062916,-0.017878,-0.098840,-0.198213,-0.135155,-0.163893,-0.119528,-0.106434,-0.266670,-0.184348,-0.192369,-0.167044,-0.232405,-0.271983,-0.154202,-0.275433,-0.351989,-0.313633,-0.417163,-0.420417,-0.442304,-0.449876,-0.501676,-0.532549,-0.478063,-0.499790,-0.502750,-0.551331,-0.552676,-0.533818,-0.588881,-0.518244,-0.519076,-0.621798,-0.538064,-0.563552,-0.513527,-0.507937,-0.526948,-0.481607,-0.509447,-0.449074,-0.451912,-0.522927,-0.424902,-0.557985,-0.514947,-0.504829,-0.508216,-0.458776,-0.449273,-0.510923,-0.429776,-0.550865,-0.352718,-0.530941,-0.281600,-0.400625,-0.086969,0.412652,4.130296,5.249406,1.760183,1.961891,1.814267,1.970478,1.848358,1.706082,1.526003,1.441111,0.665758,0.084911,-0.871895,-1.848955,-2.232790,-1.741002,-1.605263,-1.425345,-1.270314,-0.624886,-0.642625,-0.623602,-0.790645,-0.664668,-0.506325,-0.501331,-0.459381,-0.378192,-0.470029,-0.278563,-0.481286,-0.246353,-0.362759,-0.234864,-0.212094,-0.270688,-0.189660,-0.080146,-0.048050,0.076850,0.003072,0.248066,0.181993,0.408213,0.409680,0.417818,0.458097,0.468670,0.534349,0.648721,0.451221,0.629577,0.406795,0.432068,0.292610,0.232066,0.080718,0.190214,-0.137375,0.144157,-0.270674,0.224091,-0.602219,0.000000,0.000000,0.000000,0.000000,8.000000
4.184688,3.182067,1.644770,2.361097,1.931646,2.276365,1.832196,1.845935,1.633383,1.132468,0.309164,-0.415935,-1.618212,-2.197532,-1.913362,-1.558427,-1.471049,-1.294704,-0.764278,-0.468389,-0.595341,-0.616405,-0.707698,-0.414580,-0.434057,-0.385291,-0.294987,-0.367804,-0.235038,-0.309810,-0.271471,-0.163674,-0.254764,-0.043182,-0.195975,-0.106994,-0.017188,0.051093,0.155319,0.139662,0.261158,0.365292,0.398299,0.614280,0.501074,0.610162,0.589042,0.633591,0.783115,0.663867,0.685996,0.686531,0.511908,0.525760,0.371886,0.255552,0.285879,0.110864,0.122137,0.055428,0.051386,0.027734,-0.066295,-0.000328,-0.144860,-0.153389,-0.102807,-0.173200,-0.095231,-0.180540,-0.116992,-0.143912,-0.294522,-0.192669,-0.301341,-0.342095,-0.230203,-0.246660,-0.160930,-0.259971,-0.102393,-0.072100,-0.269352,-0.199015,-0.262688,-0.312933,-0.369405,-0.616541,-0.518001,-0.618456,-0.616263,-0.551719,-0.731877,-0.620407,-0.753921,-0.663903,-0.685706,-0.728366,-0.632849,-0.714839,-0.641906,-0.690419,-0.723422,-0.608856,-0.650803,-0.666933,-0.641101,-0.631911,-0.570141,-0.634003,-0.628714,-0.563166,-0.653144,-0.504196,-0.608057,-0.362871,-0.464306,-0.138165,0.292720,3.866104,4.519807,1.534611,2.007380,1.787210,2.030991,1.825421,1.841826,1.740168,1.652963,0.975114,0.352575,-0.448353,-1.448710,-1.487021,-0.935814,-1.059173,-1.026047,-1.239607,-0.844757,-0.820366,-0.745629,-0.852094,-0.922931,-0.931082,-0.769881,-0.762534,-0.536197,-0.723723,-0.450812,-0.589626,-0.426948,-0.467352,-0.490960,-0.428252,-0.383877,-0.387889,-0.246819,-0.334996,-0.113942,-0.188479,0.071733,0.005300,0.127413,0.217471,0.273355,0.324538,0.459238,0.294488,0.560710,0.350474,0.497716,0.368994,0.405979,0.262885,0.338485,0.104080,0.295474,-0.106187,0.232363,-0.243641,0.278609,-0.528350,0.000000,0.000000,0.000000,0.000000,0.000000,8.000000
3.450341,2.784726,1.244234,1.955811,1.576813,1.898791,1.548315,1.706822,1.504070,1.250023,0.463162,-0.047411,-1.068405,-1.574707,-1.104653,-0.969888,-1.026904,-1.149435,-1.046073,-0.769544,-0.814228,-0.772633,-0.916236,-0.938328,-0.829099,-0.789579,-0.617521,-0.665806,-0.602272,-0.510049,-0.571269,-0.413341,-0.554977,-0.458918,-0.432301,-0.426106,-0.322878,-0.345873,-0.242736,-0.193007,-0.102801,0.020950,-0.027980,0.157870,0.169232,0.228315,0.356633,0.259299,0.381749,0.374834,0.322274,0.380654,0.279142,0.262818,0.223745,0.127012,0.151429,-0.003761,0.004165,-0.053394,-0.086777,-0.061540,-0.175657,-0.047441,-0.126349,-0.143375,-0.098780,-0.189004,-0.122329,-0.186727,-0.167769,-0.109509,-0.246752,-0.149376,-0.195299,-0.208782,-0.156888,-0.238913,-0.181091,-0.217714,-0.231890,-0.205211,-0.324251,-0.249923,-0.311998,-0.331853,-0.259370,-0.377140,-0.289078,-0.344174,-0.403569,-0.367130,-0.453819,-0.355268,-0.425749,-0.463714,-0.436354,-0.548871,-0.496183,-0.519192,-0.378190,-0.305116,-0.365098,-0.195441,-0.242015,-0.287043,-0.286066,-0.301855,-0.292755,-0.372832,-0.500505,-0.431858,-0.536126,-0.393268,-0.543056,-0.396532,-0.498826,-0.415845,-0.420547,-0.030160,0.130403,3.362876,4.506186,1.549127,1.934929,1.951550,2.396981,2.404930,2.672543,2.744256,3.019228,2.992792,2.530873,1.867708,0.985630,0.037066,0.310871,0.031821,-0.064881,-0.761355,-0.855964,-1.052603,-1.153940,-1.081503,-1.032616,-1.252165,-1.102657,-1.210351,-0.847146,-0.916606,-0.785631,-0.824974,-0.755050,-0.737089,-0.743578,-0.756345,-0.643546,-0.665493,-0.497760,-0.690559,-0.483943,-0.530902,-0.391731,-0.264025,-0.140645,-0.143737,0.108557,0.005888,0.233037,0.112879,0.268794,0.153688,0.172339,0.119734,0.119602,0.028762,0.128288,-0.174425,0.128807,-0.302393,-0.033667,-0.457222,-0.025719,-0.653102,0.000000,0.000000,0.000000,8.000000
3.232265,2.481837,1.326184,2.048461,1.972878,2.405722,2.330116,2.663367,2.691432,2.949262,2.500066,1.976575,1.192477,0.177790,0.159444,0.137746,-0.072208,-0.514258,-0.909561,-0.899830,-1.168826,-1.048725,-1.017112,-1.156450,-1.134875,-1.139495,-0.963439,-0.817767,-0.865380,-0.742224,-0.817792,-0.681969,-0.763966,-0.725259,-0.682776,-0.643388,-0.545130,-0.614174,-0.581867,-0.468460,-0.489452,-0.268957,-0.207282,-0.151830,0.003815,0.032723,0.106790,0.160198,0.140168,0.214856,0.073516,0.154273,0.050698,0.048584,0.062753,-0.104000,-0.009815,-0.139795,-0.218769,-0.236645,-0.327561,-0.221164,-0.259799,-0.280877,-0.326784,-0.371360,-0.254631,-0.366790,-0.320808,-0.279317,-0.316057,-0.195755,-0.325007,-0.332472,-0.244087,-0.377808,-0.341692,-0.437881,-0.335382,-0.356891,-0.463400,-0.379089,-0.478878,-0.447057,-0.501718,-0.562457,-0.516532,-0.618827,-0.545637,-0.523060,-0.563489,-0.488640,-0.625861,-0.647472,-0.578566,-0.708446,-0.632340,-0.656141,-0.664272,-0.584365,-0.652048,-0.549694,-0.654832,-0.577906,-0.538130,-0.616974,-0.515082,-0.704493,-0.583565,-0.690561,-0.706468,-0.608649,-0.617117,-0.606491,-0.415205,-0.445758,-0.200318,-0.306102,0.181547,0.184497,3.438291,4.985930,1.687447,1.814050,1.432034,1.532238,1.587147,1.497358,1.586168,1.576209,1.226234,1.034205,0.404936,-0.350215,-1.233991,-0.978608,-0.869356,-1.157606,-1.271334,-0.950280,-0.669987,-0.576467,-0.910890,-0.784041,-0.796805,-0.618276,-0.519166,-0.460210,-0.404377,-0.352236,-0.341040,-0.167627,-0.263712,-0.162011,-0.180402,-0.133878,-0.059545,0.077024,0.189284,0.202528,0.204816,0.380549,0.300544,0.506650,0.490500,0.600406,0.609544,0.644050,0.660218,0.602325,0.509723,0.634537,0.349126,0.398607,0.149793,0.227656,0.047798,0.096945,-0.066881,0.041174,-0.270840,0.057791,-0.644856,0.000000,0.000000,0.000000,0.000000,8.000000
4.156055,3.326772,1.720662,2.247458,1.624524,2.198665,1.756986,2.071833,1.931947,1.759833,1.389031,0.956520,0.044224,-0.875345,-0.999240,-0.582067,-0.984136,-1.089520,-0.916672,-0.486583,-0.379852,-0.626737,-0.687024,-0.550358,-0.520188,-0.265063,-0.302265,-0.152582,-0.164058,-0.094939,0.017253,0.035139,0.012621,0.120262,0.052969,0.217020,0.272038,0.483445,0.459845,0.490483,0.625777,0.628536,0.729310,0.848119,0.841980,0.975944,0.909283,1.021528,0.908825,0.845533,0.917752,0.738305,0.640522,0.531227,0.426696,0.425866,0.278808,0.302919,0.200403,0.133672,0.109946,-0.025180,0.029749,0.061942,-0.016251,0.075113,-0.029816,0.040399,-0.047761,-0.072297,-0.004663,-0.129099,-0.087431,-0.019075,-0.057136,-0.072426,-0.227507,-0.092882,-0.146395,-0.123545,-0.057761,-0.219411,-0.155014,-0.283234,-0.345187,-0.282704,-0.384763,-0.274485,-0.369231,-0.473562,-0.364409,-0.414214,-0.412880,-0.490728,-0.512665,-0.444738,-0.608070,-0.458238,-0.541393,-0.560622,-0.498494,-0.605586,-0.506957,-0.576747,-0.586291,-0.591282,-0.655452,-0.587690,-0.671033,-0.712034,-0.678786,-0.779212,-0.659660,-0.790987,-0.721754,-0.733585,-0.726059,-0.631119,-0.620622,-0.659379,-0.503236,-0.583881,-0.027621,0.294207,3.967314,4.579791,1.546498,1.912222,1.623191,1.932534,1.724048,1.491419,1.435142,1.260683,0.815868,0.312693,-0.387174,-0.983135,-1.959198,-1.596526,-1.156816,-1.113159,-1.280924,-1.314992,-0.999608,-0.709755,-1.039603,-1.023133,-1.287988,-1.167467,-1.209703,-1.085505,-0.975154,-0.958842,-0.892649,-0.849729,-0.831327,-0.691784,-0.818863,-0.615388,-0.658192,-0.619615,-0.602012,-0.525472,-0.489784,-0.364548,-0.458896,-0.197361,-0.381344,-0.085418,-0.217148,-0.046810,-0.100123,0.024178,0.027686,0.116949,0.017570,0.164874,-0.097291,0.157546,-0.103901,0.049118,-0.242389,-0.044664,-0.383848,-0.011371,-0.879796,8.000000
3.684454,2.945445,1.424638,1.987888,1.514869,1.879779,1.358922,1.516450,1.146629,0.948360,0.258063,-0.550999,-1.485467,-2.487203,-2.551262,-1.839848,-1.858549,-1.679842,-1.485082,-0.836911,-0.748952,-0.737402,-0.573258,-0.636220,-0.525217,-0.202367,-0.135955,-0.033904,-0.106495,-0.083276,-0.010636,-0.173379,-0.216846,-0.261676,-0.341448,-0.294724,-0.387017,-0.183448,-0.263192,-0.332827,-0.223654,-0.127093,0.032281,0.069899,0.224265,0.518102,0.445443,0.497099,0.624879,0.730271,0.691871,0.586795,0.652226,0.558495,0.519387,0.487576,0.370573,0.401284,0.237262,0.194900,0.072021,-0.030206,0.131196,-0.023196,0.022278,-0.017945,-0.173424,-0.048568,-0.090045,-0.110655,-0.126141,-0.188563,-0.057184,-0.212505,-0.169365,-0.102408,-0.221285,-0.186029,-0.265272,-0.266816,-0.170221,-0.279147,-0.293767,-0.308705,-0.309031,-0.330157,-0.412445,-0.338313,-0.434893,-0.419200,-0.345251,-0.490092,-0.367373,-0.406901,-0.435717,-0.410263,-0.465235,-0.373484,-0.469653,-0.482778,-0.426832,-0.452124,-0.368003,-0.445497,-0.455645,-0.397137,-0.454345,-0.438785,-0.504628,-0.468750,-0.429101,-0.417724,-0.336855,-0.375749,-0.394474,-0.337516,-0.467635,-0.207379,-0.280573,0.122257,1.040033,5.033338,3.800489,1.585248,2.223460,1.963579,2.133253,1.844638,1.781720,1.424632,1.011685,0.104677,-0.625281,-1.865914,-2.332165,-1.951218,-1.681293,-1.560764,-1.325003,-0.891814,-0.472020,-0.728685,-0.624782,-0.763297,-0.574839,-0.537838,-0.474157,-0.431688,-0.436460,-0.377168,-0.260947,-0.368448,-0.191135,-0.315918,-0.218039,-0.231705,-0.170681,-0.108596,-0.095771,-0.021031,0.100786,0.031698,0.349296,0.263616,0.531935,0.535054,0.594626,0.739619,0.808358,0.874698,0.907483,0.657419,0.857540,0.528970,0.650144,0.234219,0.213680,0.042530,0.066495,-0.183610,0.013197,-0.418649,0.077628,-0.777548,0.000000,0.000000,0.000000,8.000000
3.474391,2.793632,1.957700,2.520845,2.190839,2.340041,1.979534,1.911598,1.423066,0.778544,-0.114539,-1.069092,-2.124212,-1.850496,-1.546341,-1.354871,-1.207011,-0.843525,-0.312996,-0.379174,-0.452078,-0.445110,-0.454528,-0.253805,-0.296346,-0.168265,-0.211678,-0.160209,-0.039192,-0.097540,-0.013695,-0.004565,-0.045932,0.054430,0.015895,0.146405,0.129562,0.194057,0.331362,0.272875,0.506825,0.556438,0.662801,0.843262,0.769360,0.986965,1.022331,1.115167,1.172008,0.947493,1.059773,0.877917,0.835526,0.638311,0.380597,0.395191,0.241458,0.174663,0.143013,0.009924,0.063803,-0.062500,-0.074267,-0.128703,-0.207810,-0.071754,-0.248379,-0.192474,-0.178496,-0.265440,-0.227728,-0.314478,-0.270010,-0.247324,-0.350829,-0.289708,-0.391506,-0.345906,-0.352230,-0.482652,-0.426558,-0.564495,-0.532301,-0.525944,-0.626876,-0.537078,-0.658480,-0.700016,-0.583295,-0.681904,-0.563672,-0.678610,-0.661899,-0.606757,-0.656315,-0.624224,-0.777861,-0.691949,-0.611036,-0.715933,-0.644771,-0.697551,-0.680344,-0.639691,-0.750624,-0.620806,-0.723428,-0.632910,-0.723996,-0.646960,-0.517777,-0.593445,-0.597907,-0.534540,-0.614261,-0.366016,-0.564961,-0.123225,0.091186,3.456066,4.653950,1.587897,1.986129,1.737621,1.932205,1.597152,1.556592,1.182493,0.678313,-0.351073,-1.081787,-2.374259,-2.363857,-1.713499,-1.513188,-1.468880,-1.110955,-0.599670,-0.662133,-0.896943,-0.707475,-0.752769,-0.539315,-0.536172,-0.509923,-0.434125,-0.408623,-0.384979,-0.301850,-0.369775,-0.217717,-0.363668,-0.183663,-0.287889,-0.141955,-0.085868,-0.071534,0.030306,0.144936,0.185809,0.348214,0.283073,0.483594,0.405212,0.526204,0.521965,0.564083,0.552971,0.552249,0.443797,0.553365,0.221981,0.412511,0.119016,0.214221,0.023741,0.018662,-0.150624,-0.051856,-0.367296,-0.017953,-0.716025,0.000000,0.000000,0.000000,0.000000,0.000000,8.000000
3.585411,2.687782,1.761721,2.255411,1.940122,2.042622,1.650029,1.594157,0.930868,0.109023,-0.829621,-1.930057,-2.521464,-1.659970,-1.494962,-1.321630,-1.184639,-0.517472,-0.484915,-0.717175,-0.654032,-0.574240,-0.507942,-0.333963,-0.428892,-0.277643,-0.289085,-0.241460,-0.174751,-0.207141,-0.113629,-0.157123,-0.121137,-0.059443,-0.100120,0.109753,0.039749,0.166124,0.264389,0.332268,0.466655,0.477586,0.567603,0.640520,0.617681,0.736185,0.704402,0.746475,0.745163,0.635494,0.721680,0.520805,0.480002,0.461418,0.275892,0.332682,0.134332,0.104707,0.049505,-0.066052,-0.049929,-0.160436,-0.169945,-0.138120,-0.217764,-0.087200,-0.208038,-0.237154,-0.280397,-0.317319,-0.202358,-0.273761,-0.303670,-0.314045,-0.422332,-0.304781,-0.405899,-0.365657,-0.384496,-0.470433,-0.448303,-0.595347,-0.644119,-0.440564,-0.492067,-0.374491,-0.326984,-0.195935,-0.200635,-0.311244,-0.230670,-0.330142,-0.310477,-0.309166,-0.503628,-0.526866,-0.698744,-0.629119,-0.615133,-0.667823,-0.641873,-0.700904,-0.656017,-0.621033,-0.712638,-0.605158,-0.660394,-0.656261,-0.601600,-0.600701,-0.559399,-0.605245,-0.574168,-0.451589,-0.694793,-0.436470,-0.506343,-0.006125,0.492831,4.157937,3.992098,1.525596,2.203596,2.037785,2.313693,2.163895,2.199483,2.289207,2.118376,1.421624,0.811141,-0.218734,-1.337207,-1.493829,-1.102110,-1.227186,-1.282428,-1.302168,-1.018832,-1.016972,-0.859386,-1.121489,-1.083189,-1.057617,-0.912052,-0.788532,-0.654599,-0.612525,-0.518125,-0.633209,-0.385210,-0.519733,-0.436078,-0.406807,-0.409409,-0.340560,-0.351753,-0.272274,-0.160175,-0.156290,0.017136,-0.101263,0.246581,0.331358,0.375441,0.413870,0.425800,0.419052,0.545692,0.419963,0.611562,0.427763,0.645164,0.396078,0.459981,0.226969,0.293140,0.096145,0.277945,-0.084242,0.352820,-0.309495,0.000000,0.000000,0.000000,0.000000,0.000000,8.000000
2.845179,2.148955,1.155628,1.841483,1.554723,1.885382,1.581846,1.832034,1.726693,1.372567,0.692838,0.075072,-1.067995,-1.653331,-1.389968,-1.271557,-1.402965,-1.446328,-1.292932,-1.162160,-1.092818,-1.123112,-1.301943,-1.195394,-1.169187,-1.004998,-0.904306,-0.828717,-0.746909,-0.793209,-0.724352,-0.624042,-0.741982,-0.591386,-0.658223,-0.578796,-0.571670,-0.559375,-0.424901,-0.429061,-0.290683,-0.314885,-0.219119,0.051319,0.040293,0.101320,0.130972,0.088711,0.211650,0.141672,0.228149,0.194029,0.223561,0.230501,0.099850,0.066118,-0.046275,-0.084164,-0.088361,-0.174734,-0.166754,-0.158407,-0.245162,-0.284261,-0.351811,-0.265842,-0.257913,-0.376562,-0.277838,-0.359417,-0.277304,-0.212528,-0.237337,-0.154389,-0.245211,-0.265617,-0.351018,-0.344330,-0.354319,-0.376917,-0.219193,-0.338743,-0.403848,-0.393048,-0.454540,-0.347228,-0.324561,-0.403548,-0.376151,-0.494744,-0.469841,-0.462014,-0.539336,-0.415955,-0.392147,-0.302444,-0.373266,-0.436051,-0.318614,-0.415463,-0.450458,-0.603567,-0.588706,-0.296299,-0.326915,-0.319007,-0.349703,-0.325992,-0.275196,-0.460259,-0.377481,-0.378893,-0.437991,-0.295734,-0.250517,-0.088381,0.007104,0.026558,0.196296,0.007834,0.187126,0.143883,0.494327,1.441606,5.222413,4.312995,1.892892,2.224916,2.122821,2.316631,2.308939,2.473245,2.472134,2.449903,1.959023,1.564058,0.708080,-0.567634,-1.253527,-1.019089,-1.101101,-1.337139,-1.402172,-0.879633,-0.700615,-0.673129,-0.799293,-0.732145,-0.653355,-0.590228,-0.498950,-0.392082,-0.447606,-0.223583,-0.346206,-0.173492,-0.150115,-0.140668,-0.042533,-0.093952,-0.000366,0.065075,0.016648,0.144465,0.086933,0.250352,0.275533,0.387918,0.447542,0.504364,0.542443,0.601241,0.504953,0.645195,0.425019,0.551420,0.391314,0.412250,0.294690,0.248166,0.143744,0.134368,-0.142151,0.110390,-0.268754,0.098110,-0.467344,8.000000
3.605740,3.083086,1.756714,2.378302,2.092579,2.423692,2.317252,2.545292,2.439509,2.256689,1.709220,1.246449,0.013693,-0.960446,-1.043017,-0.868643,-1.138987,-1.288509,-1.001306,-0.583223,-0.592904,-0.613789,-0.694887,-0.541923,-0.528674,-0.423982,-0.320309,-0.337273,-0.213361,-0.176202,-0.195888,-0.002782,-0.110838,0.056519,-0.014289,0.056306,0.137885,0.109449,0.182700,0.195761,0.253828,0.373372,0.398105,0.528556,0.538023,0.608865,0.653097,0.592766,0.672631,0.567285,0.550677,0.548831,0.426269,0.448988,0.286593,0.285162,0.188898,0.032241,0.085815,-0.010822,-0.034496,-0.008363,-0.166281,-0.110534,-0.186545,-0.167362,-0.190227,-0.256658,-0.146656,-0.245564,-0.181591,-0.178938,-0.223418,-0.170088,-0.245357,-0.164558,-0.183919,-0.239490,-0.151590,-0.270737,-0.195466,-0.232453,-0.293183,-0.191154,-0.304333,-0.258617,-0.297990,-0.389539,-0.314034,-0.415231,-0.385390,-0.399353,-0.477585,-0.455620,-0.539179,-0.500701,-0.528957,-0.582107,-0.519022,-0.628438,-0.545226,-0.577677,-0.581626,-0.538467,-0.616112,-0.546560,-0.595712,-0.646156,-0.535300,-0.642175,-0.586892,-0.614031,-0.597209,-0.584222,-0.597533,-0.587721,-0.583951,-0.637152,-0.443743,-0.618252,-0.459794,-0.594180,-0.254233,0.262096,3.352118,5.228380,1.849677,1.805756,1.851157,1.930105,2.063239,1.797802,1.671263,1.394773,0.731794,0.213365,-0.519579,-1.243026,-1.888929,-1.451103,-0.897431,-0.886691,-1.044577,-0.866844,-0.757269,-0.696926,-1.018783,-0.954264,-1.069270,-0.965407,-0.901193,-0.871811,-0.829668,-0.737731,-0.791502,-0.625005,-0.701886,-0.585292,-0.628627,-0.570260,-0.497516,-0.463011,-0.478778,-0.366558,-0.446357,-0.225662,-0.323173,-0.131096,-0.115744,-0.029853,0.026415,0.063939,0.054265,0.177484,0.066591,0.274457,0.080101,0.215603,0.050661,0.084402,-0.000435,-0.004495,-0.191805,-0.016725,-0.372393,0.030387,-0.679290,8.000000
3.716661,3.146697,1.311705,2.083841,1.514887,1.863296,1.437955,1.541868,1.294908,1.001831,0.526636,-0.110449,-0.998127,-1.830413,-2.198497,-1.700087,-1.677345,-1.678885,-1.263685,-0.769914,-0.635290,-0.768336,-0.807205,-0.744954,-0.849947,-0.599882,-0.589628,-0.567601,-0.565213,-0.616025,-0.577241,-0.528941,-0.505730,-0.417668,-0.489931,-0.325457,-0.233296,-0.148577,-0.149024,-0.105605,0.056748,0.170766,0.350442,0.374002,0.377820,0.619553,0.700724,0.897925,0.999400,0.913895,1.012559,1.013973,1.033125,1.038064,0.886716,0.886861,0.811783,0.623848,0.576673,0.468787,0.493488,0.388923,0.257046,0.258049,0.134060,0.198475,0.158358,0.090563,0.084279,0.046942,0.108311,0.054201,0.032226,0.078972,0.011788,0.092523,0.076948,0.091139,0.053467,-0.068241,-0.039585,-0.107625,-0.140317,-0.141317,-0.225091,-0.119716,-0.188389,-0.232399,-0.217624,-0.299043,-0.284475,-0.251117,-0.335055,-0.254119,-0.329360,-0.241250,-0.350874,-0.290137,-0.297768,-0.386589,-0.363464,-0.383427,-0.407402,-0.363290,-0.436465,-0.356904,-0.418773,-0.469169,-0.407669,-0.470250,-0.417298,-0.415662,-0.483474,-0.344375,-0.478964,-0.343458,-0.448225,-0.378518,-0.328290,-0.301079,-0.308579,0.103025,0.462483,4.473010,4.380974,1.571711,2.093625,1.797784,2.184064,1.797754,1.882088,1.573309,1.288787,0.588326,-0.090463,-0.802960,-1.761408,-2.014788,-1.480984,-1.556306,-1.275114,-1.133011,-0.598582,-0.551769,-0.785392,-0.862835,-0.930973,-0.898642,-0.725916,-0.883684,-0.732448,-0.907537,-0.848587,-0.888042,-0.906448,-0.883194,-0.849075,-0.890277,-0.714689,-0.848003,-0.647992,-0.685580,-0.518001,-0.476505,-0.325680,-0.244391,-0.061015,-0.049361,0.176772,0.120142,0.474975,0.322256,0.510953,0.456631,0.518087,0.337304,0.444764,0.281230,0.345936,0.034314,0.221513,-0.150878,0.083027,-0.288054,0.050317,-0.692507,0.000000,8.000000
3.842328,3.043793,1.817908,2.367648,2.149863,2.365919,1.967164,2.089911,1.573363,1.220008,0.309672,-0.224664,-1.240058,-1.856544,-1.459672,-1.288305,-1.221199,-0.955828,-0.621702,-0.230329,-0.535617,-0.608105,-0.706110,-0.722387,-0.540653,-0.621193,-0.576847,-0.605609,-0.696664,-0.623264,-0.715455,-0.670178,-0.638213,-0.684053,-0.537181,-0.594259,-0.509819,-0.434315,-0.377169,-0.244557,-0.167279,-0.035295,0.114465,0.170378,0.351605,0.357192,0.608458,0.634053,0.648311,0.756819,0.705056,0.650493,0.610805,0.598480,0.528233,0.377727,0.349906,0.241923,0.147819,0.158437,0.017319,-0.001838,0.016489,-0.073351,-0.003796,-0.085752,-0.004547,-0.079722,-0.092634,-0.070379,-0.118299,-0.123151,-0.141631,-0.177179,-0.125507,-0.230927,-0.161923,-0.223407,-0.251666,-0.246509,-0.312169,-0.265567,-0.328320,-0.385879,-0.310531,-0.453370,-0.301424,-0.420608,-0.404577,-0.379172,-0.495670,-0.463816,-0.517727,-0.473898,-0.424990,-0.497121,-0.395681,-0.481064,-0.445317,-0.415472,-0.486100,-0.445448,-0.521156,-0.426670,-0.475832,-0.542681,-0.429028,-0.467612,-0.420418,-0.374048,-0.483331,-0.282941,-0.433013,-0.258716,-0.290842,-0.009540,0.243051,3.384920,5.387710,1.937230,2.061967,1.982017,2.100104,1.894814,1.991635,1.689847,1.377978,0.444566,-0.178364,-1.305130,-1.947063,-1.561123,-1.319507,-1.271739,-1.185002,-0.932997,-0.499245,-0.779381,-0.695818,-0.812141,-0.522939,-0.365132,-0.372047,-0.336041,-0.118567,-0.233491,-0.120928,-0.336651,-0.154912,-0.379777,-0.474600,-0.514823,-0.543641,-0.582084,-0.515171,-0.587936,-0.382344,-0.492676,-0.212217,-0.271770,-0.113888,-0.050740,0.104747,0.180947,0.286371,0.214858,0.429567,0.243701,0.475963,0.288812,0.438072,0.281358,0.246537,0.083121,0.104526,-0.142118,0.110732,-0.351512,0.217392,-0.656080,0.000000,0.000000,0.000000,0.000000,0.000000,0.000000,0.000000,8.000000
3.919816,2.869937,1.449811,2.157079,1.752603,1.971693,1.716790,1.770362,1.272995,0.671523,-0.211564,-0.975010,-2.066963,-1.698401,-1.486021,-1.324717,-1.331324,-1.107277,-0.681097,-0.750613,-0.860722,-0.831423,-0.775128,-0.433459,-0.492576,-0.445609,-0.281477,-0.277085,-0.265455,-0.342777,-0.353221,-0.323868,-0.607296,-0.553323,-0.653516,-0.652469,-0.634381,-0.661677,-0.553749,-0.535015,-0.447698,-0.293444,-0.327947,-0.132899,-0.089286,0.070493,0.145979,0.129996,0.243879,0.228343,0.244884,0.311535,0.214655,0.309753,0.116839,0.073421,-0.008196,-0.148682,-0.089763,-0.236146,-0.193128,-0.200819,-0.377112,-0.288818,-0.367328,-0.325088,-0.359211,-0.442439,-0.365289,-0.427809,-0.386990,-0.357059,-0.488312,-0.436444,-0.553296,-0.492743,-0.482291,-0.539763,-0.466753,-0.542708,-0.541683,-0.568830,-0.603304,-0.533176,-0.607789,-0.633956,-0.632717,-0.635251,-0.535703,-0.617373,-0.640512,-0.638392,-0.735294,-0.623679,-0.635386,-0.609607,-0.643914,-0.638380,-0.600182,-0.731437,-0.617013,-0.562279,-0.677654,-0.603279,-0.680033,-0.576809,-0.550906,-0.590125,-0.519321,-0.519158,-0.554342,-0.377424,-0.443407,-0.273686,-0.514342,-0.338403,-0.253702,0.123074,1.024415,4.726013,3.850898,1.694306,2.025220,1.827500,1.943456,1.607534,1.670223,1.302377,1.079217,0.052254,-0.669069,-1.868928,-1.965253,-1.495401,-1.442741,-1.419513,-0.966516,-0.614368,-0.498599,-0.642792,-0.502237,-0.440978,-0.238118,-0.168962,-0.050285,-0.070095,0.116206,0.049124,0.214417,0.008574,0.106563,0.294877,0.561007,0.524353,0.518798,0.647048,0.872748,0.642175,0.953786,0.842891,0.908323,0.814615,0.897650,0.870557,0.836248,0.893155,0.882707,0.764128,1.047019,0.648368,0.849916,0.905833,0.815137,0.554693,0.691342,0.566846,0.723514,0.347854,0.588249,0.162770,0.607952,-0.151337,0.000000,0.000000,0.000000,0.000000,0.000000,8.000000
3.312228,2.429744,1.385487,1.777068,1.571949,1.540807,1.332976,1.238671,0.917079,0.284976,-0.713117,-1.642816,-2.550901,-2.005295,-1.828556,-1.821856,-1.583551,-1.073124,-0.863137,-0.922198,-0.937683,-0.796449,-0.676900,-0.516755,-0.425465,-0.398149,-0.284052,-0.240023,-0.181529,-0.188981,-0.324254,-0.091869,0.136498,0.271957,0.189191,0.254180,0.530278,0.423170,0.489924,0.657069,0.531943,0.602334,0.512512,0.638628,0.514703,0.577972,0.620882,0.462815,0.668616,0.546375,0.370370,0.668285,0.543634,0.355390,0.300497,0.333133,0.352596,0.213552,0.133436,0.082380,0.013665,0.025988,-0.123404,0.088851,0.031572,-0.130310,-0.011248,-0.090383,-0.150782,-0.194614,-0.199468,-0.085128,-0.191549,-0.146144,-0.111550,-0.222843,-0.137146,-0.268696,-0.202395,-0.213912,-0.260290,-0.174359,-0.267078,-0.218566,-0.292653,-0.359694,-0.244139,-0.367141,-0.307265,-0.342785,-0.355043,-0.363255,-0.503286,-0.337230,-0.360458,-0.441324,-0.391559,-0.444092,-0.366752,-0.368189,-0.418512,-0.392450,-0.417620,-0.415656,-0.406731,-0.449530,-0.335658,-0.417035,-0.324140,-0.367614,-0.305098,-0.325744,-0.396519,-0.368212,-0.287350,-0.411638,-0.171589,-0.326555,0.149528,0.466722,4.294090,4.756713,1.689888,2.235620,1.892940,2.092928,1.866872,1.729908,1.542560,1.264556,0.510806,-0.166643,-1.214551,-2.157928,-2.568791,-2.103388,-1.938529,-1.845740,-1.647066,-1.131348,-0.853428,-0.785489,-0.948716,-0.808230,-0.815150,-0.688507,-0.594555,-0.634673,-0.532752,-0.461140,-0.545688,-0.390347,-0.479940,-0.339619,-0.430367,-0.443478,-0.367081,-0.308543,-0.291922,-0.207022,-0.226317,-0.012672,-0.087849,0.131495,0.098608,0.272158,0.327143,0.415338,0.437648,0.538482,0.433639,0.614379,0.485017,0.842865,0.671131,0.755813,0.722911,0.770765,0.635339,0.638326,0.292499,0.550932,-0.184486,0.000000,0.000000,0.000000,0.000000,8.000000
3.851534,3.258184,1.703949,2.470218,2.019275,2.609868,2.206346,2.501084,2.366578,2.230657,1.821451,1.253283,0.312844,-0.774105,-0.919877,-0.549809,-0.867864,-0.824502,-1.016472,-0.657518,-0.497097,-0.783070,-0.816188,-0.788823,-0.729656,-0.579253,-0.602527,-0.470986,-0.491981,-0.397964,-0.327562,-0.347998,-0.222521,-0.213086,-0.192710,-0.103729,-0.179272,0.015993,-0.065444,0.068864,0.114767,0.215647,0.338193,0.439101,0.419255,0.504437,0.471659,0.631657,0.513930,0.561787,0.494911,0.472709,0.447692,0.307700,0.275125,0.231408,0.093511,0.126780,-0.052097,-0.020672,-0.073995,-0.154837,-0.090061,-0.227008,-0.243390,-0.206184,-0.258909,-0.175389,-0.264398,-0.199327,-0.180406,-0.207510,-0.132394,-0.176532,-0.129330,-0.124476,-0.196965,-0.074987,-0.269830,-0.209868,-0.249835,-0.267466,-0.184082,-0.335086,-0.276361,-0.256200,-0.385165,-0.312396,-0.419695,-0.396936,-0.429647,-0.496236,-0.426982,-0.511400,-0.415338,-0.522062,-0.543496,-0.446373,-0.554224,-0.467544,-0.475321,-0.527136,-0.451089,-0.609537,-0.548204,-0.604885,-0.547317,-0.485100,-0.557544,-0.515032,-0.538655,-0.558289,-0.421304,-0.603514,-0.381220,-0.521702,-0.410933,-0.437410,-0.087244,0.141456,3.415477,4.832503,1.630744,1.866778,1.647203,2.015287,1.853487,1.917572,1.753815,1.585818,0.663426,-0.168050,-1.270325,-2.078098,-1.610281,-1.073128,-1.069699,-0.877930,-0.710699,-0.410814,-0.804345,-0.836249,-0.964385,-0.951368,-0.914339,-0.936002,-0.896267,-0.741293,-0.884103,-0.706894,-0.798979,-0.650057,-0.727703,-0.656309,-0.577378,-0.457585,-0.472976,-0.261739,-0.344006,-0.090896,-0.148086,-0.034037,0.035526,0.101480,0.068271,0.167750,0.085264,0.234824,0.089858,0.266928,0.061249,0.193862,0.068712,0.058514,-0.102792,-0.069418,-0.339697,-0.173607,-0.462532,-0.110351,-0.544485,-0.031791,-0.880962,0.000000,0.000000,0.000000,0.000000,8.000000
3.690528,2.670804,1.485675,1.971318,1.800825,2.100412,1.826209,1.950377,1.638508,1.074018,0.039780,-0.785743,-1.916963,-1.619723,-1.054856,-0.927414,-0.840770,-0.640168,-0.356664,-0.562798,-0.775521,-0.775620,-0.892192,-0.773335,-0.838330,-0.797757,-0.657313,-0.738168,-0.655051,-0.646791,-0.604601,-0.567149,-0.604728,-0.471443,-0.390241,-0.365970,-0.217277,-0.214070,-0.082587,0.002679,-0.014946,0.146710,0.155488,0.181433,0.220426,0.204074,0.275249,0.229455,0.288469,0.237590,0.198493,0.247153,0.103081,0.069560,-0.018177,-0.142917,-0.164506,-0.241117,-0.173428,-0.228098,-0.225125,-0.268586,-0.289077,-0.160591,-0.191924,-0.180315,-0.159945,-0.220995,-0.233726,-0.274907,-0.267167,-0.290352,-0.392738,-0.353736,-0.343880,-0.348028,-0.394107,-0.441667,-0.367022,-0.442522,-0.455506,-0.510162,-0.538616,-0.440410,-0.502788,-0.528856,-0.514290,-0.585471,-0.560047,-0.634900,-0.576333,-0.569747,-0.656381,-0.597441,-0.616003,-0.562078,-0.639577,-0.646803,-0.545033,-0.582404,-0.593685,-0.548496,-0.539788,-0.459162,-0.542355,-0.464748,-0.527152,-0.599944,-0.453307,-0.528525,-0.495764,-0.283135,-0.457331,0.029241,0.224715,3.494357,5.626152,1.941803,2.169069,1.788440,2.038101,1.830035,1.754361,1.578754,1.220921,0.527760,-0.217154,-1.423152,-2.035034,-1.811125,-1.366291,-1.379622,-1.040645,-0.629580,-0.312739,-0.332621,-0.335593,-0.599836,-0.463627,-0.414594,-0.341811,-0.405835,-0.411532,-0.326774,-0.372646,-0.467429,-0.337302,-0.456411,-0.207008,-0.381049,-0.189237,-0.290879,-0.295477,-0.175349,0.017420,0.146794,0.405536,0.386196,0.561404,0.505616,0.809100,0.807901,0.898413,1.000479,0.940779,0.954105,1.054568,0.781208,0.933758,0.685764,0.880712,0.546636,0.597674,0.429100,0.485654,0.184377,0.452835,-0.118621,0.000000,0.000000,0.000000,0.000000,0.000000,0.000000,0.000000,0.000000,0.000000,8.000000
4.154979,3.120724,1.548723,2.137437,1.638641,2.054886,1.504201,1.718957,1.133080,0.730714,-0.197779,-1.149068,-2.214382,-2.009256,-1.659382,-1.453345,-1.372772,-0.806989,-0.545961,-0.387867,-0.482339,-0.612586,-0.703931,-0.484801,-0.533614,-0.449576,-0.592176,-0.434656,-0.482767,-0.571323,-0.496378,-0.543922,-0.417766,-0.407621,-0.426957,-0.299058,-0.488356,-0.300064,-0.188752,0.010730,0.204256,0.316891,0.375802,0.448630,0.556445,0.791105,0.701364,0.934412,0.850988,0.846565,0.959411,0.779076,0.771502,0.704494,0.677106,0.645631,0.392037,0.462248,0.307434,0.243635,0.175230,0.105537,0.216522,0.093966,0.143312,0.134852,0.013686,0.132598,-0.022574,0.071138,0.067731,-0.050541,0.070639,-0.044216,-0.119568,0.008112,-0.029952,0.016776,-0.167436,-0.095692,-0.046862,-0.168317,-0.102749,-0.220161,-0.088320,-0.199682,-0.297423,-0.155518,-0.333541,-0.266904,-0.263784,-0.398262,-0.262204,-0.317279,-0.297740,-0.308024,-0.395646,-0.268021,-0.440582,-0.384049,-0.336495,-0.440840,-0.311888,-0.428502,-0.413358,-0.390351,-0.430474,-0.312789,-0.401481,-0.362992,-0.286530,-0.387889,-0.260053,-0.422131,-0.292703,-0.401873,-0.306156,-0.339207,-0.027022,0.272246,3.850733,5.188179,1.672103,2.101981,1.966193,2.217192,1.811747,1.899864,1.411487,1.088669,0.208965,-0.477729,-1.481852,-2.305434,-1.890453,-1.592193,-1.697798,-1.298826,-1.028842,-0.494471,-0.668592,-0.764177,-0.827890,-0.751247,-0.665868,-0.556834,-0.500309,-0.244252,-0.412732,-0.221126,-0.262575,-0.219088,-0.258630,-0.303667,-0.328552,-0.273360,-0.570634,-0.539517,-0.632255,-0.463917,-0.482024,-0.444771,-0.436145,-0.300114,-0.329112,-0.124043,-0.147761,0.138721,-0.009584,0.238518,0.198679,0.282075,0.230963,0.218412,0.087498,0.186894,-0.145860,0.144980,-0.266796,0.077213,-0.384478,0.066440,-0.717220,0.000000,0.000000,0.000000,0.000000,8.000000
4.394291,3.369771,1.674127,2.490803,2.166228,2.318665,1.942283,1.947068,1.321373,0.878285,-0.133499,-0.757890,-1.996537,-1.867190,-1.429263,-1.467156,-1.269020,-0.907898,-0.474724,-0.307262,-0.591222,-0.561696,-0.614835,-0.462610,-0.396163,-0.320976,-0.111426,-0.126345,-0.123961,0.013369,-0.070379,0.003328,-0.106404,-0.111421,-0.068759,-0.253554,-0.378656,-0.373324,-0.347196,-0.223956,-0.280999,-0.217429,-0.145468,-0.105785,0.008247,0.074472,0.246068,0.278662,0.312143,0.486647,0.405168,0.508479,0.394440,0.351040,0.357062,0.171404,0.228148,0.127083,0.084610,0.092132,-0.044733,0.019791,-0.078651,-0.118393,-0.130606,-0.234610,-0.137898,-0.232092,-0.162457,-0.188760,-0.291602,-0.211278,-0.262674,-0.270973,-0.267631,-0.358215,-0.249865,-0.332725,-0.353387,-0.298707,-0.415750,-0.341263,-0.397603,-0.349401,-0.389428,-0.489549,-0.413582,-0.541639,-0.487248,-0.511963,-0.600080,-0.487468,-0.591940,-0.538874,-0.570199,-0.639696,-0.535456,-0.644097,-0.592218,-0.536850,-0.589847,-0.521208,-0.632425,-0.551677,-0.582978,-0.567101,-0.530534,-0.610764,-0.613505,-0.539804,-0.587776,-0.489662,-0.592763,-0.514007,-0.610904,-0.499059,-0.515321,-0.533774,-0.517563,-0.373803,-0.496137,0.016590,0.173761,3.885014,4.758818,1.483171,2.055993,1.646363,2.002141,1.761767,1.768252,1.693037,1.393496,0.880206,0.188677,-0.716314,-1.553123,-2.244835,-1.535641,-1.367374,-1.295207,-1.226395,-1.010456,-0.560748,-0.566210,-0.799790,-0.653282,-0.760943,-0.491562,-0.497465,-0.357684,-0.348186,-0.333762,-0.329910,-0.234741,-0.329318,-0.137678,-0.291415,-0.168416,-0.263064,-0.134573,-0.134494,-0.089539,-0.057031,0.045222,0.030782,0.275707,0.048101,0.305991,0.257065,0.416499,0.454932,0.645757,0.701707,0.810501,0.729298,1.069266,0.694416,0.951034,0.668120,0.879301,0.527895,0.642182,0.161380,0.529595,-0.354891,0.000000,8.000000
3.916961,3.402869,1.807312,2.431963,2.143025,2.269867,1.880523,1.889919,1.480993,1.075920,0.146662,-0.468333,-1.455010,-2.272355,-2.158031,-1.808116,-1.679333,-1.523200,-1.255808,-0.670828,-0.584533,-0.482492,-0.561754,-0.565905,-0.354890,-0.345259,-0.247773,-0.280785,-0.280998,-0.197350,-0.314122,-0.187691,-0.236263,-0.205866,-0.162985,-0.222763,-0.130043,-0.126310,-0.088083,0.038436,0.052978,0.172732,0.216902,0.278128,0.372177,0.375988,0.590582,0.616403,0.734509,0.796293,0.736534,0.831394,0.862465,0.862288,0.993653,0.774765,0.740357,0.599638,0.515701,0.404630,0.218564,0.147459,-0.015654,-0.031873,-0.080458,-0.143299,-0.126482,-0.209391,-0.147180,-0.168316,-0.270795,-0.176233,-0.248032,-0.231151,-0.203205,-0.296199,-0.231180,-0.278954,-0.291562,-0.343716,-0.448562,-0.373160,-0.436977,-0.471079,-0.457889,-0.524139,-0.471290,-0.563838,-0.540656,-0.556789,-0.628245,-0.573389,-0.626614,-0.619512,-0.589433,-0.598484,-0.553887,-0.657794,-0.568268,-0.656613,-0.714115,-0.558494,-0.653608,-0.625045,-0.573563,-0.597891,-0.515390,-0.604477,-0.496638,-0.499004,-0.594252,-0.474824,-0.575145,-0.477728,-0.456137,-0.458686,-0.465692,-0.432972,-0.437593,-0.352599,-0.401071,-0.025786,0.018480,2.904164,4.561144,1.733567,1.952140,1.751220,2.039930,1.906329,1.878974,1.829297,1.731783,1.365223,0.845081,-0.040470,-0.620489,-1.739355,-1.621960,-1.263566,-1.154155,-1.211493,-1.165964,-0.859745,-0.567229,-0.799416,-0.710701,-0.965045,-0.681544,-0.684137,-0.577330,-0.535487,-0.511999,-0.499864,-0.468762,-0.524314,-0.343784,-0.512092,-0.353857,-0.439232,-0.332150,-0.340236,-0.309928,-0.224370,-0.165202,-0.224201,-0.111143,-0.159180,0.117192,0.100899,0.301189,0.304811,0.380968,0.363980,0.519058,0.385368,0.624204,0.408736,0.606292,0.389113,0.563184,0.294662,0.440765,0.110836,0.467278,-0.288167,0.000000,8.000000
2.956847,2.300794,1.799632,2.371994,2.443248,2.743580,2.639035,3.095884,3.005564,3.095235,2.457942,1.821410,0.891459,-0.212818,-0.034067,-0.174515,-0.515798,-0.892026,-0.994605,-0.857592,-0.950107,-0.792592,-0.831524,-0.910688,-0.685764,-0.679796,-0.623925,-0.476341,-0.542459,-0.392014,-0.451844,-0.491730,-0.403296,-0.504603,-0.406427,-0.436039,-0.418748,-0.310600,-0.320601,-0.132278,-0.157978,-0.023219,0.083369,0.118084,0.325109,0.273119,0.370930,0.418012,0.341117,0.459225,0.311774,0.291065,0.241142,0.144849,0.121365,0.022362,0.009108,-0.020538,-0.133450,-0.099303,-0.198977,-0.169146,-0.186395,-0.283891,-0.173066,-0.237571,-0.259527,-0.210040,-0.306034,-0.196932,-0.291519,-0.257406,-0.206811,-0.302159,-0.201571,-0.332992,-0.292519,-0.304341,-0.378612,-0.288320,-0.392596,-0.375897,-0.397195,-0.444965,-0.406201,-0.516406,-0.489045,-0.473624,-0.576689,-0.460337,-0.617248,-0.510570,-0.515470,-0.635113,-0.562193,-0.679836,-0.605391,-0.604674,-0.659456,-0.546216,-0.707350,-0.617349,-0.644494,-0.678727,-0.611055,-0.641697,-0.637376,-0.582041,-0.640049,-0.498730,-0.641725,-0.510241,-0.575131,-0.517999,-0.511966,-0.239652,0.351893,4.194045,3.604992,1.436483,2.029912,1.780026,2.038877,1.700514,1.873217,1.522472,1.115279,0.416209,-0.072397,-0.928429,-1.519222,-1.130106,-0.584538,-0.641202,-0.733508,-0.852669,-0.451676,-0.640705,-0.815287,-0.872549,-0.946890,-0.864097,-0.855963,-0.869595,-0.712493,-0.837317,-0.636989,-0.773376,-0.634579,-0.607319,-0.553377,-0.544698,-0.509433,-0.500468,-0.380963,-0.415284,-0.222567,-0.337165,-0.147887,-0.068899,-0.030320,0.082260,0.139456,0.166309,0.293961,0.179164,0.390821,0.279302,0.370793,0.308824,0.300743,0.263195,0.264339,0.114064,0.232357,-0.043230,0.174729,-0.155987,0.118612,-0.325102,0.000000,0.000000,0.000000,0.000000,0.000000,0.000000,0.000000,8.000000
3.537188,2.476801,1.845143,2.286473,2.119102,2.171308,1.956594,2.011728,1.351790,0.783971,-0.014437,-0.696753,-1.784961,-1.629026,-0.935652,-0.742611,-0.902302,-1.062367,-0.790638,-0.634292,-1.040464,-1.026654,-1.196441,-1.115470,-1.062876,-1.121209,-0.944252,-1.016025,-0.911550,-0.889489,-0.930271,-0.746201,-0.777856,-0.688089,-0.700094,-0.663202,-0.566561,-0.547861,-0.418758,-0.388435,-0.388199,-0.119140,-0.167505,0.000305,0.070106,0.101467,0.242027,0.179933,0.282973,0.348497,0.277774,0.371811,0.246137,0.278229,0.237715,0.121316,0.154795,0.009884,-0.000652,-0.037916,-0.165219,-0.081227,-0.198195,-0.139714,-0.141295,-0.210871,-0.127655,-0.189717,-0.111168,-0.079212,-0.160102,-0.108795,-0.164974,-0.074225,-0.070171,-0.156609,-0.031102,-0.153882,-0.116661,-0.132391,-0.276894,-0.152094,-0.193201,-0.240309,-0.187217,-0.300185,-0.205162,-0.366355,-0.317189,-0.330719,-0.389053,-0.343312,-0.417324,-0.375246,-0.359223,-0.440577,-0.347606,-0.466616,-0.411452,-0.401594,-0.463924,-0.408166,-0.421841,-0.476133,-0.422316,-0.482269,-0.355478,-0.513678,-0.444420,-0.439492,-0.488234,-0.390050,-0.439893,-0.402458,-0.379237,-0.455464,-0.303295,-0.464280,-0.163677,-0.325712,0.112758,0.524585,4.142417,5.282522,1.981199,2.311680,2.091708,2.250940,2.078831,2.011462,1.824005,1.755945,0.998577,0.283864,-0.632767,-1.568653,-1.467733,-0.964543,-0.878840,-0.830087,-0.800020,-0.239968,-0.453161,-0.520301,-0.631264,-0.699048,-0.622603,-0.630870,-0.657321,-0.638699,-0.686854,-0.484957,-0.671061,-0.547276,-0.674768,-0.615904,-0.474247,-0.469247,-0.362810,-0.244774,-0.381895,-0.112638,-0.252519,0.039218,0.007599,0.135268,0.254101,0.325446,0.374225,0.480196,0.493388,0.761304,0.643587,0.872498,0.829692,0.920673,0.821575,0.712748,0.594868,0.643928,0.455400,0.668171,0.285915,0.672794,0.141412,0.000000,0.000000,8.000000
3.800680,2.662348,1.323513,2.051232,1.678995,1.902822,1.661534,1.799897,1.510124,1.254335,0.319842,-0.163783,-1.216030,-1.861371,-1.495550,-1.196793,-1.256110,-1.247158,-1.098955,-0.625953,-0.716431,-0.722291,-0.902077,-0.816935,-0.691319,-0.715434,-0.594711,-0.600895,-0.522140,-0.503452,-0.607524,-0.452544,-0.590633,-0.459089,-0.407879,-0.467171,-0.367935,-0.353820,-0.314404,-0.209703,-0.275775,-0.063496,-0.049193,0.069532,0.142790,0.169558,0.311604,0.232966,0.319463,0.407366,0.448453,0.550423,0.533285,0.610341,0.623024,0.616106,0.575306,0.443434,0.360073,0.225644,-0.019900,-0.038598,-0.192789,-0.186279,-0.276850,-0.286508,-0.250704,-0.365056,-0.358163,-0.382427,-0.461649,-0.381055,-0.500539,-0.465347,-0.491449,-0.507384,-0.505955,-0.597102,-0.528398,-0.487354,-0.585752,-0.573493,-0.704426,-0.631465,-0.686749,-0.772213,-0.708968,-0.747507,-0.665468,-0.685190,-0.732175,-0.673351,-0.756345,-0.700345,-0.678984,-0.747723,-0.634497,-0.724894,-0.678683,-0.681078,-0.779377,-0.630817,-0.663207,-0.714936,-0.625398,-0.716783,-0.617858,-0.610106,-0.548137,-0.531008,-0.605719,-0.538818,-0.574989,-0.525008,-0.379082,-0.477108,-0.333223,-0.529758,-0.388938,-0.351850,-0.012150,0.908418,4.792785,4.196101,1.631404,2.031734,1.755140,1.894144,1.862526,1.981383,1.772592,1.706126,1.221855,0.607091,-0.325893,-1.372652,-1.636148,-1.150483,-1.193928,-1.163366,-1.223273,-0.806417,-0.573623,-0.440628,-0.640102,-0.639219,-0.604764,-0.546445,-0.444917,-0.338721,-0.396125,-0.124960,-0.173166,-0.068787,-0.146331,-0.170462,-0.090668,-0.063546,-0.046441,0.106381,0.089096,0.277914,0.144233,0.378074,0.445895,0.490136,0.516849,0.542865,0.616982,0.702410,0.704459,0.880984,0.873897,1.024032,0.872677,0.889565,0.913762,0.869871,0.713892,0.788235,0.521739,0.829954,0.347522,0.687234,-0.039950,0.000000,0.000000,8.000000
3.588039,2.817564,1.341917,1.961415,1.494333,1.839403,1.693993,1.804001,1.516589,1.387664,0.657348,-0.022552,-1.224145,-1.916419,-1.626959,-1.366427,-1.461641,-1.453615,-1.292212,-0.843557,-0.734448,-0.745868,-0.942921,-0.816667,-0.837940,-0.706141,-0.599643,-0.611463,-0.470922,-0.329694,-0.371878,-0.280199,-0.441854,-0.310034,-0.304149,-0.272230,-0.163416,-0.113338,-0.001356,0.004392,0.032970,0.292761,0.222986,0.355582,0.293414,0.423754,0.465089,0.524304,0.617955,0.717615,0.770150,0.781327,0.630879,0.773111,0.667044,0.581106,0.556895,0.411634,0.516677,0.357942,0.256624,0.185306,0.026276,0.089760,0.029255,0.097889,0.149364,0.048688,0.114793,-0.001866,0.072582,0.107925,-0.038736,-0.040752,-0.074789,0.098128,0.025372,-0.076432,-0.145909,-0.176311,-0.022565,-0.051688,-0.210273,0.058782,0.087608,0.101302,0.055520,0.121076,0.229178,0.044383,-0.001203,-0.040462,-0.286901,-0.273323,-0.261326,-0.278424,-0.268045,-0.361598,-0.265728,-0.364567,-0.362084,-0.427849,-0.464708,-0.373482,-0.458659,-0.417104,-0.370045,-0.429163,-0.322677,-0.480691,-0.374445,-0.397135,-0.382034,-0.312506,-0.353694,-0.363428,-0.321198,-0.416497,-0.201191,-0.301855,0.022817,0.186282,2.677715,5.333850,2.184821,2.037024,2.194200,2.343150,2.393675,2.020132,2.025753,1.950651,1.580909,1.082835,0.206049,-0.852755,-1.424519,-0.997061,-1.075439,-1.279336,-1.355212,-1.075543,-1.196901,-0.977694,-1.095204,-1.067075,-1.262069,-1.115872,-0.998154,-1.007395,-0.920839,-0.873611,-0.972168,-0.795389,-0.919603,-0.821869,-0.924368,-0.884750,-0.810736,-0.848688,-0.768435,-0.605738,-0.625020,-0.418472,-0.468907,-0.217509,-0.252662,-0.122536,-0.009225,0.073217,0.127404,0.234291,0.117374,0.292399,0.126784,0.255955,-0.002247,0.053802,-0.053213,-0.024499,-0.248326,-0.097095,-0.424481,0.046829,-0.743934,0.000000,0.000000,8.000000
3.465515,2.945939,1.450129,2.218359,1.908945,2.333081,1.807114,1.905139,1.769839,1.597426,1.119687,0.515599,-0.448883,-1.091599,-0.877996,-0.753936,-0.990518,-1.079054,-0.888811,-0.900113,-0.816741,-0.789343,-0.856198,-0.924718,-0.956609,-0.743253,-0.799794,-0.709602,-0.660964,-0.729568,-0.635854,-0.649661,-0.662425,-0.643595,-0.721249,-0.588141,-0.643554,-0.596335,-0.455412,-0.445648,-0.315039,-0.290415,-0.173494,-0.076954,-0.083624,0.091229,0.124282,0.199037,0.280461,0.226046,0.299111,0.269082,0.263730,0.205047,0.075668,0.125754,0.037288,-0.027788,-0.061692,-0.142189,-0.065900,-0.151494,-0.180134,-0.166802,-0.214588,-0.123399,-0.238766,-0.178521,-0.188308,-0.213170,-0.169129,-0.215362,-0.153644,-0.165755,-0.170168,-0.160895,-0.192499,-0.167475,-0.185342,-0.242219,-0.197749,-0.270273,-0.219617,-0.255175,-0.307393,-0.276792,-0.367258,-0.324655,-0.361037,-0.369969,-0.302073,-0.417958,-0.343012,-0.385224,-0.449693,-0.339813,-0.443883,-0.429454,-0.485891,-0.562587,-0.474724,-0.546829,-0.345439,-0.356849,-0.368437,-0.228780,-0.297561,-0.246269,-0.291280,-0.332559,-0.286269,-0.409289,-0.458989,-0.371801,-0.528470,-0.287910,-0.463863,-0.129550,0.069644,2.925688,4.561579,1.586097,1.838334,1.852064,2.189657,2.355901,2.422818,2.686984,2.898498,2.771051,2.441653,1.675299,0.844430,0.046831,0.322238,0.066713,-0.409085,-0.780753,-0.795539,-1.053106,-0.974871,-1.078687,-1.048508,-1.226297,-1.023593,-0.933679,-0.894226,-0.834341,-0.758077,-0.798043,-0.626626,-0.810423,-0.598098,-0.708303,-0.657474,-0.655232,-0.622841,-0.585944,-0.502135,-0.519319,-0.323957,-0.430398,-0.125175,-0.212219,-0.036004,0.018910,0.112995,0.151975,0.202829,0.118753,0.252175,0.080759,0.269068,0.002919,0.138649,-0.035591,0.049727,-0.130720,0.052881,-0.269560,0.153174,-0.626266,0.000000,0.000000,0.000000,0.000000,0.000000,8.000000
3.584335,2.719224,1.234889,2.041933,1.798417,2.418070,2.213493,2.602626,2.749900,2.830859,2.514308,1.924415,1.065760,0.150467,0.061239,0.177850,-0.377811,-0.776993,-0.920513,-1.061743,-1.161581,-1.127254,-1.199220,-1.263321,-1.282634,-1.031473,-1.054282,-0.967746,-0.892357,-0.916721,-0.789904,-0.849262,-0.828796,-0.724858,-0.843046,-0.733676,-0.772899,-0.710095,-0.638843,-0.643754,-0.496324,-0.503421,-0.380409,-0.233700,-0.271685,-0.059850,-0.056717,0.052168,0.090566,0.041183,0.110256,0.049597,0.084842,0.050272,-0.066100,-0.016134,-0.121873,-0.135088,-0.142503,-0.216726,-0.170017,-0.275132,-0.271736,-0.262662,-0.350006,-0.311882,-0.413937,-0.358464,-0.346530,-0.389236,-0.247067,-0.330401,-0.252946,-0.264335,-0.329341,-0.243607,-0.349194,-0.295063,-0.214337,-0.301982,-0.264601,-0.357776,-0.334328,-0.315188,-0.404701,-0.378346,-0.431008,-0.491017,-0.394681,-0.452183,-0.374752,-0.432827,-0.421659,-0.407853,-0.454709,-0.370971,-0.467717,-0.492939,-0.457634,-0.484712,-0.397173,-0.436820,-0.444368,-0.445096,-0.493451,-0.355959,-0.423084,-0.416133,-0.421913,-0.500348,-0.399938,-0.412439,-0.392188,-0.348416,-0.429075,-0.219022,-0.253780,0.050953,1.051339,4.599352,3.317005,1.387934,1.870052,1.584221,1.692365,1.547489,1.636937,1.526490,1.425622,0.909474,0.295811,-0.785381,-1.451610,-1.249608,-0.916501,-1.009288,-1.041453,-0.925337,-0.484820,-0.523519,-0.520612,-0.807820,-0.825189,-0.838082,-0.789957,-0.749095,-0.712189,-0.609935,-0.522537,-0.616568,-0.451593,-0.566003,-0.440741,-0.442513,-0.437843,-0.326810,-0.327990,-0.268846,-0.114610,-0.141845,0.111045,0.008559,0.266590,0.316276,0.353251,0.448071,0.540199,0.607980,0.703846,0.607145,0.871481,0.686084,0.884739,0.700766,0.640713,0.584387,0.719218,0.495409,0.629797,0.130616,0.553359,-0.196954,0.000000,0.000000,0.000000,0.000000,0.000000,8.000000
3.193955,2.287509,1.405013,1.885153,1.488401,1.691625,1.486594,1.628111,1.408402,1.152075,0.426207,-0.461972,-1.654861,-1.749059,-1.350855,-1.239199,-1.372339,-1.332238,-0.942292,-0.710912,-0.796623,-0.925721,-1.182416,-1.086847,-1.145263,-1.023300,-1.035534,-0.929224,-0.800239,-0.857944,-0.787522,-0.750307,-0.800302,-0.636726,-0.741715,-0.591160,-0.564906,-0.553898,-0.369862,-0.372282,-0.179364,-0.130825,-0.069258,0.196568,0.127370,0.277844,0.350358,0.442908,0.566164,0.483203,0.667302,0.659864,0.656646,0.725972,0.469370,0.489541,0.532913,0.457980,0.432553,0.168741,0.153169,0.055585,0.091365,0.206569,-0.076629,0.012117,-0.014655,-0.026870,0.011127,-0.102494,-0.107519,-0.122508,-0.180498,-0.160710,-0.263856,-0.163088,-0.125873,-0.152061,-0.103229,-0.361399,-0.216987,-0.150322,-0.061915,0.033249,-0.124974,-0.109312,-0.124718,-0.084511,0.019769,-0.100426,-0.054027,-0.181731,-0.225496,-0.217429,-0.274427,-0.218788,-0.123740,-0.179006,-0.144049,-0.313501,-0.193182,-0.139772,-0.114454,-0.207070,-0.214854,-0.084021,-0.107285,-0.121144,-0.051473,-0.159833,-0.040214,-0.176022,-0.163850,-0.130033,-0.161614,-0.140147,-0.175891,-0.214232,-0.036730,-0.227969,0.083254,-0.115122,0.329658,0.519990,3.714985,5.454177,2.257280,2.447193,2.324492,2.378830,2.328548,2.073419,1.870009,1.712662,0.899763,0.216392,-0.731276,-1.710529,-2.465243,-2.111046,-1.866399,-1.797654,-1.562372,-1.089879,-0.773677,-0.477097,-0.733996,-0.680410,-0.722105,-0.647681,-0.501550,-0.490158,-0.474726,-0.362134,-0.539109,-0.414077,-0.560077,-0.448018,-0.463891,-0.447573,-0.401632,-0.420922,-0.432934,-0.319685,-0.378156,-0.171229,-0.255957,-0.080681,-0.051274,0.002545,0.081428,0.158695,0.160734,0.340760,0.274844,0.523298,0.352039,0.462601,0.397535,0.408799,0.353938,0.445278,0.254126,0.370609,0.009908,0.332915,-0.312229,8.000000
3.374757,2.575963,1.781946,2.094955,1.911528,2.051512,1.664823,1.916577,1.408759,1.124073,0.218228,-0.474309,-1.447991,-1.992681,-1.500664,-1.345923,-1.400112,-1.236530,-0.953065,-0.423707,-0.631447,-0.776085,-0.771294,-0.771874,-0.490631,-0.351077,-0.381511,-0.225446,-0.289821,-0.107451,-0.253991,-0.299436,-0.221072,-0.116802,-0.042223,0.031422,0.058253,0.093275,0.028158,0.284782,0.250757,0.368267,0.593438,0.583156,0.731345,0.689747,0.771260,0.897884,0.901213,1.015582,0.923160,0.849675,0.915232,0.882110,0.847766,0.698150,0.765021,0.876816,0.709592,0.714855,0.685159,0.702764,0.562505,0.451723,0.457614,0.312951,0.205709,0.170581,0.053951,0.201693,0.054654,0.055024,0.085778,-0.043274,0.033684,-0.087355,-0.072899,-0.087272,-0.171534,-0.073562,-0.191444,-0.164196,-0.133669,-0.240250,-0.171732,-0.320563,-0.276415,-0.313054,-0.399298,-0.277175,-0.382228,-0.375592,-0.371020,-0.494510,-0.418014,-0.549745,-0.446458,-0.498735,-0.546378,-0.486922,-0.546303,-0.529001,-0.489878,-0.603204,-0.524103,-0.636934,-0.497641,-0.570332,-0.525365,-0.498785,-0.521299,-0.583068,-0.469578,-0.556267,-0.423223,-0.563908,-0.448641,-0.495866,-0.394302,-0.396339,-0.026020,0.646784,4.816576,3.880169,1.508053,2.050718,1.820268,2.118143,1.688731,1.941774,1.674374,1.447601,0.740225,0.036177,-0.987786,-1.882439,-1.621003,-1.283320,-1.450160,-1.295400,-1.232929,-0.788145,-0.912792,-1.026475,-1.070040,-1.156689,-1.071403,-0.989711,-1.022228,-0.848260,-0.991173,-0.829016,-0.908813,-0.888609,-0.798369,-0.870941,-0.856267,-0.822854,-0.827925,-0.603726,-0.710732,-0.524893,-0.479559,-0.416319,-0.282964,-0.229736,-0.091271,0.018128,-0.049734,0.158863,0.051987,0.240098,0.192630,0.215648,0.162279,0.092736,0.025143,0.141521,-0.108584,0.106318,-0.298842,-0.022435,-0.359974,0.013070,-0.415833,0.000000,0.000000,8.000000
3.508828,2.784888,2.044624,2.463983,2.349047,2.353975,2.157988,2.324460,1.891384,1.548456,0.670726,-0.043729,-1.240423,-1.339340,-0.890564,-0.931673,-0.922234,-0.815022,-0.526290,-0.324414,-0.595975,-0.561700,-0.701183,-0.662990,-0.551287,-0.579319,-0.455808,-0.472364,-0.479722,-0.374316,-0.504093,-0.349245,-0.397439,-0.427355,-0.369771,-0.409892,-0.234160,-0.205473,-0.197401,-0.010143,-0.034564,0.119189,0.190144,0.266817,0.454443,0.384674,0.523148,0.540965,0.573518,0.685052,0.623872,0.637295,0.574486,0.452218,0.576573,0.408349,0.470914,0.337268,0.245725,0.298808,0.189843,0.351436,0.306942,0.227383,0.204573,0.113052,0.154491,0.072591,-0.068409,-0.121266,-0.186809,-0.113795,-0.179250,-0.238354,-0.245613,-0.334554,-0.266790,-0.348509,-0.392609,-0.388762,-0.484193,-0.339120,-0.475165,-0.529105,-0.524174,-0.606478,-0.572562,-0.632137,-0.751456,-0.609333,-0.706542,-0.618777,-0.688121,-0.707989,-0.624762,-0.706513,-0.615592,-0.700226,-0.724242,-0.621888,-0.752496,-0.654955,-0.704103,-0.674914,-0.640178,-0.670594,-0.601407,-0.598410,-0.599624,-0.459484,-0.616552,-0.412325,-0.552902,-0.459302,-0.464729,-0.393217,-0.354765,-0.012222,0.598940,4.586479,4.067033,1.723860,2.178640,1.829216,2.130441,1.792708,1.883139,1.798506,1.714842,1.380387,0.695810,0.017353,-0.950230,-1.551926,-0.915604,-0.981386,-0.897836,-1.104480,-0.859139,-0.630550,-0.694261,-0.833285,-0.896594,-1.074412,-0.838859,-0.929748,-0.781572,-0.792996,-0.702136,-0.700998,-0.707578,-0.628062,-0.682528,-0.771544,-0.662764,-0.780622,-0.606179,-0.695029,-0.550866,-0.588570,-0.435494,-0.251568,-0.176603,-0.167925,0.045637,-0.073470,0.226760,0.170258,0.304006,0.227133,0.313709,0.318678,0.376170,0.284342,0.465971,0.182341,0.394673,0.114191,0.301947,0.051379,0.259494,-0.248193,0.000000,0.000000,0.000000,0.000000,0.000000,8.000000
2.488753,1.945392,1.450996,2.104601,2.133548,2.632677,2.359894,2.689445,2.862932,2.956589,2.810597,2.160573,1.450092,0.324887,0.014126,0.081836,-0.364093,-0.800580,-0.892288,-0.893177,-1.018121,-1.074597,-0.948510,-1.071597,-1.201442,-0.998403,-0.928155,-0.692459,-0.690968,-0.714301,-0.611632,-0.672704,-0.573329,-0.621032,-0.628669,-0.561080,-0.593281,-0.520348,-0.534804,-0.441118,-0.284642,-0.274603,-0.115757,-0.067212,-0.091545,0.158780,0.273792,0.461764,0.447607,0.463464,0.542635,0.479572,0.466482,0.386172,0.405725,0.486485,0.324879,0.269064,0.239635,0.178484,0.221191,0.151411,0.184459,0.129600,0.025276,0.180717,0.046605,0.076095,0.058594,0.026841,0.133612,0.002387,0.066796,0.023851,0.029588,0.107800,0.005390,0.115056,0.066305,0.003677,0.092637,-0.016557,0.024695,-0.043056,-0.043404,-0.032445,-0.138721,-0.109407,-0.152617,-0.188044,-0.138868,-0.240445,-0.224235,-0.287832,-0.271478,-0.257726,-0.329993,-0.251722,-0.330895,-0.430249,-0.359866,-0.400368,-0.334772,-0.345754,-0.414234,-0.354677,-0.457449,-0.380161,-0.421185,-0.421289,-0.421797,-0.459523,-0.433969,-0.421954,-0.522053,-0.472993,-0.604315,-0.448853,-0.450202,0.000704,1.030066,4.736606,3.516496,1.652629,2.005792,1.816921,1.940421,1.775968,1.622547,1.427302,1.352199,0.764061,0.325226,-0.437419,-1.335557,-1.233650,-0.658101,-0.680887,-0.914299,-1.001390,-0.581873,-0.847403,-0.950278,-1.169331,-1.147968,-1.126391,-1.114044,-1.061545,-1.053462,-1.059488,-0.950369,-0.992049,-0.884864,-0.901425,-0.852428,-0.824869,-0.766392,-0.746835,-0.698429,-0.712454,-0.528396,-0.616987,-0.415372,-0.424109,-0.292961,-0.208329,-0.181013,-0.142054,-0.072425,-0.079627,0.043604,-0.126308,-0.012908,-0.146041,-0.113180,-0.197357,-0.198879,-0.293054,-0.268123,-0.462769,-0.275088,-0.597894,-0.212430,-0.772550,0.000000,0.000000,0.000000,8.000000
3.676848,3.025608,2.130851,2.560499,2.285457,2.454519,2.126158,2.006935,1.854871,1.513050,0.852206,0.329377,-0.784589,-1.174205,-0.570660,-0.317289,-0.519259,-0.787207,-0.428798,-0.392431,-0.677442,-0.793770,-0.959736,-0.840560,-0.889824,-0.808005,-0.791089,-0.808368,-0.716791,-0.705416,-0.662614,-0.602378,-0.608145,-0.547932,-0.503858,-0.470716,-0.410251,-0.443358,-0.274490,-0.285114,-0.198322,-0.073111,-0.055458,0.127891,0.130773,0.182931,0.253602,0.253055,0.372526,0.276679,0.276512,0.272133,0.180879,0.198476,0.111034,0.081211,0.046696,-0.084749,-0.024066,-0.154719,-0.091218,-0.120259,-0.204783,-0.219409,-0.229482,-0.252474,-0.219873,-0.300319,-0.185414,-0.261815,-0.192083,-0.189125,-0.274672,-0.201505,-0.197799,-0.218026,-0.164691,-0.194500,-0.145767,-0.251431,-0.175399,-0.238411,-0.279966,-0.249084,-0.338463,-0.317113,-0.308861,-0.393567,-0.287389,-0.417015,-0.371433,-0.394323,-0.419971,-0.417403,-0.473464,-0.438022,-0.444930,-0.509845,-0.396808,-0.509822,-0.423908,-0.455307,-0.485732,-0.404378,-0.514627,-0.484892,-0.451285,-0.489064,-0.417813,-0.488804,-0.508328,-0.458865,-0.492394,-0.363163,-0.460689,-0.324852,-0.400502,-0.262746,-0.232460,0.120114,0.573145,4.227698,5.225408,1.956441,2.011610,1.867291,2.057662,1.830968,1.832712,1.638628,1.618515,1.062100,0.360214,-0.418646,-1.366388,-2.015147,-1.579719,-1.220682,-0.935299,-1.048483,-0.747320,-0.422355,-0.115263,-0.375636,-0.439955,-0.499961,-0.367438,-0.429128,-0.435660,-0.603314,-0.451517,-0.593552,-0.574061,-0.585326,-0.590373,-0.694940,-0.631205,-0.760556,-0.627947,-0.803219,-0.661350,-0.702309,-0.658616,-0.680216,-0.571406,-0.406809,-0.194480,-0.167470,0.048798,0.010224,0.307789,0.255278,0.470087,0.469126,0.603357,0.638715,0.716743,0.591134,0.796306,0.509124,0.735541,0.405692,0.693899,0.141111,0.000000,0.000000,0.000000,8.000000
3.418355,2.362555,1.401110,1.784166,1.592292,1.584633,1.340120,1.339656,0.893730,0.379554,-0.700520,-1.500620,-2.422404,-1.897308,-1.520002,-1.490609,-1.370264,-1.099482,-0.597112,-0.619656,-0.870124,-0.821384,-0.906326,-0.708358,-0.638897,-0.696469,-0.598665,-0.683985,-0.692008,-0.667213,-0.653067,-0.421545,-0.457609,-0.391808,-0.440101,-0.440158,-0.356442,-0.377460,-0.134947,-0.031872,0.001956,0.265362,0.223330,0.292276,0.391746,0.362929,0.441006,0.435752,0.539361,0.512238,0.498522,0.583218,0.485811,0.512963,0.399757,0.286456,0.368352,0.108644,0.005677,0.014793,-0.114969,-0.102431,-0.239559,-0.103382,-0.107235,-0.209930,-0.151348,-0.204469,-0.095736,-0.167413,-0.190019,-0.079666,-0.175634,-0.296403,-0.484513,-0.499318,-0.454508,-0.612212,-0.543305,-0.610651,-0.632750,-0.574074,-0.641411,-0.692548,-0.603576,-0.684879,-0.717144,-0.709816,-0.672612,-0.703437,-0.768581,-0.765488,-0.803880,-0.698416,-0.656366,-0.782025,-0.629166,-0.643614,-0.598067,-0.613017,-0.681023,-0.671013,-0.753997,-0.690777,-0.704104,-0.769091,-0.586800,-0.629879,-0.520646,-0.657558,-0.537697,-0.465613,-0.416442,-0.490808,-0.288716,-0.423890,0.058715,0.141141,3.718838,4.707179,1.753324,2.269356,2.050961,2.383974,2.036064,1.957556,2.032878,2.139225,1.755921,1.131306,0.275990,-0.732669,-0.856869,-0.565764,-1.036755,-1.174387,-0.940087,-0.879349,-0.872993,-0.765649,-0.843382,-0.669290,-0.794346,-0.622300,-0.662725,-0.506064,-0.401617,-0.375246,-0.414552,-0.358925,-0.299261,-0.165329,-0.302946,-0.127817,-0.211050,-0.071687,-0.010259,0.032201,0.179710,0.325943,0.415983,0.649567,0.582753,0.767011,0.755985,0.865648,0.861575,0.901187,0.991343,1.019050,0.878074,1.034288,0.811400,0.870683,0.670285,0.746851,0.604236,0.695834,0.467299,0.690282,0.133417,0.000000,0.000000,0.000000,0.000000,0.000000,0.000000,8.000000
3.315769,2.697272,1.388773,2.058442,1.756718,2.053425,1.523701,1.790632,1.732140,1.749774,1.098311,0.547963,-0.482319,-0.964888,-0.712613,-0.830840,-1.245220,-1.063053,-0.935000,-0.947521,-0.846721,-0.886107,-0.799378,-0.796951,-0.788344,-0.688741,-0.692450,-0.504283,-0.483273,-0.488665,-0.483747,-0.439231,-0.306790,-0.355951,-0.329933,-0.259406,-0.291562,-0.124555,-0.139948,-0.027451,0.123269,0.195105,0.390030,0.437195,0.478934,0.592625,0.595766,0.685823,0.660771,0.737174,0.826263,0.703670,0.766815,0.718841,0.627646,0.586827,0.499176,0.501711,0.461809,0.400640,0.404583,0.267907,0.323913,0.289879,0.266043,0.308408,0.205673,0.257428,0.226843,0.169577,0.247777,0.193212,0.248024,0.191133,0.156906,0.205735,0.096897,0.164252,0.126673,0.003302,0.013851,-0.099976,-0.067219,-0.098760,-0.107701,-0.052104,-0.124392,0.002119,0.015815,0.054016,0.045769,-0.091321,-0.022797,-0.129308,-0.250199,-0.274581,-0.422240,-0.317220,-0.420894,-0.441201,-0.361560,-0.482113,-0.412218,-0.475977,-0.514093,-0.441657,-0.564939,-0.468808,-0.527507,-0.536612,-0.497687,-0.509491,-0.499803,-0.449085,-0.530843,-0.355189,-0.483022,-0.042300,0.205876,3.374252,4.032398,1.391747,1.850479,1.773204,2.127636,2.162783,2.077931,2.037578,2.162042,1.893060,1.799121,0.959487,0.442877,-0.889486,-1.327718,-1.095146,-1.147473,-1.349185,-1.513694,-1.449487,-1.293959,-1.422461,-1.189692,-1.332978,-1.390672,-1.271001,-1.189588,-1.146529,-1.072011,-1.113713,-1.004875,-1.146886,-1.012809,-1.145953,-1.064636,-1.032968,-1.089807,-1.054340,-0.953346,-1.030632,-0.825407,-0.910870,-0.695743,-0.726438,-0.558476,-0.517878,-0.363451,-0.261365,-0.107309,-0.141415,0.089790,-0.025134,0.180888,-0.013567,0.132988,-0.007067,0.053608,-0.120944,0.048453,-0.341425,0.062422,-0.712072,0.000000,0.000000,0.000000,0.000000,0.000000,8.000000
3.493406,2.932506,1.466044,2.243737,1.993334,2.513749,2.247849,2.282989,2.311415,2.245001,2.071395,1.595721,0.856947,0.006286,-1.177991,-0.918978,-0.937312,-1.014546,-1.287253,-1.290235,-1.139325,-1.162837,-1.118128,-0.995183,-1.236291,-1.094289,-1.030075,-0.955191,-0.894394,-0.899506,-0.838659,-0.881178,-0.884951,-0.852255,-0.947700,-0.795656,-0.884061,-0.877061,-0.770272,-0.814491,-0.700107,-0.663853,-0.600760,-0.477082,-0.456937,-0.295433,-0.248396,-0.077742,0.042723,0.072315,0.208316,0.237772,0.289937,0.302084,0.232337,0.304491,0.190110,0.178975,0.163924,0.042837,0.043156,-0.063083,-0.088668,-0.111498,-0.211731,-0.164124,-0.265793,-0.222304,-0.199796,-0.282919,-0.172760,-0.213896,-0.236495,-0.205059,-0.267658,-0.167154,-0.280714,-0.181649,-0.174356,-0.252518,-0.165211,-0.263051,-0.207390,-0.199795,-0.249920,-0.178081,-0.281245,-0.267019,-0.272502,-0.319100,-0.268616,-0.388880,-0.310822,-0.350402,-0.450257,-0.345991,-0.419005,-0.404327,-0.441460,-0.554497,-0.416795,-0.499701,-0.436644,-0.479253,-0.511893,-0.436554,-0.505757,-0.471298,-0.452639,-0.604962,-0.512993,-0.611522,-0.516945,-0.435338,-0.389476,-0.321823,-0.292210,-0.193342,-0.152791,-0.295568,-0.077711,-0.222367,0.118428,0.294249,3.673408,3.898667,1.456627,2.010149,1.785910,2.065619,2.051513,2.170322,2.304605,2.346289,1.958772,1.547392,0.650170,-0.310908,-0.791639,-0.488570,-0.653715,-0.900704,-1.019779,-0.790415,-0.685413,-0.731388,-0.994184,-0.862362,-0.878915,-0.801791,-0.720703,-0.702945,-0.630905,-0.492240,-0.548400,-0.370053,-0.502306,-0.299635,-0.389248,-0.276466,-0.250832,-0.276945,-0.211639,-0.074353,-0.119188,0.113087,0.030839,0.268225,0.201634,0.412593,0.403693,0.432148,0.422941,0.460978,0.413696,0.489992,0.303468,0.478704,0.327280,0.332334,0.131699,0.186927,0.059243,0.110431,-0.256958,0.234750,-0.528092,8.000000
3.219150,2.304992,1.471886,2.026666,1.748595,2.171178,1.977213,2.320098,2.300278,2.127755,1.603938,0.921583,-0.243284,-0.960226,-0.870632,-0.750072,-1.125529,-1.262235,-1.174446,-0.930152,-0.954431,-1.176800,-1.219920,-1.095414,-1.135149,-0.972233,-0.973312,-0.918308,-0.756633,-0.784586,-0.651480,-0.685730,-0.621324,-0.541046,-0.590352,-0.427035,-0.513653,-0.457893,-0.312815,-0.324347,-0.160168,-0.121942,-0.023701,0.083992,0.114403,0.307487,0.209341,0.297501,0.261765,0.280910,0.298319,0.213442,0.213555,0.273011,0.112640,0.066274,-0.071002,-0.041887,-0.112792,-0.324721,-0.196552,-0.299664,-0.257673,-0.296599,-0.359559,-0.317689,-0.375071,-0.350855,-0.278609,-0.353939,-0.277425,-0.383586,-0.307369,-0.287203,-0.350522,-0.253175,-0.303756,-0.276810,-0.337884,-0.466279,-0.334376,-0.453932,-0.385419,-0.359200,-0.471808,-0.373983,-0.472758,-0.462438,-0.410555,-0.478309,-0.499018,-0.599060,-0.533516,-0.557141,-0.709773,-0.566763,-0.674275,-0.621405,-0.569076,-0.643094,-0.536751,-0.668438,-0.586140,-0.565730,-0.675062,-0.689574,-0.650659,-0.595514,-0.600869,-0.641666,-0.511409,-0.651382,-0.439076,-0.616997,-0.566202,-0.431291,-0.431083,-0.350065,-0.097931,-0.156507,0.159245,0.619146,4.782312,4.066420,1.597663,2.218942,1.778756,2.196596,1.955471,2.102698,2.078679,1.729642,1.205524,0.752418,-0.187258,-1.085375,-1.241481,-0.924221,-1.282256,-1.361699,-1.064582,-0.708346,-0.739321,-0.822647,-0.971729,-0.820697,-0.893489,-0.748559,-0.598722,-0.482597,-0.449401,-0.409080,-0.292032,-0.308733,-0.253946,-0.095169,-0.200952,0.046260,-0.049144,-0.012415,0.108356,0.278431,0.503352,0.385219,0.351564,0.648067,0.606940,0.855610,0.718471,0.741400,0.823126,0.844348,0.748562,0.749156,0.686136,0.744168,0.438822,0.517760,0.331205,0.365208,0.165758,0.158557,0.051329,0.420881,-0.200606,0.000000,0.000000,8.000000
2.979299,2.399757,1.697195,2.029342,1.817723,2.116494,1.826404,2.141123,1.745683,1.408714,0.896429,0.291300,-0.725889,-1.086084,-0.853845,-0.931247,-1.239629,-0.993563,-0.675523,-0.550732,-0.663316,-0.776351,-0.743183,-0.692851,-0.703657,-0.482555,-0.420340,-0.315941,-0.338073,-0.207160,-0.195130,-0.196246,-0.026380,-0.089221,0.039985,0.102984,0.009889,0.168984,0.255941,0.511864,0.492326,0.362133,0.617451,0.648797,0.793326,0.821230,0.709145,0.844179,0.847349,0.808118,0.759377,0.730638,0.761470,0.577067,0.501210,0.477161,0.362087,0.338730,0.170779,0.187902,0.320159,0.206550,0.155337,0.095625,0.203260,0.214370,0.138271,0.207933,0.169847,0.215037,0.161140,0.061634,0.163256,0.131405,0.142976,0.158919,0.143306,0.218480,0.088353,0.080700,0.082787,0.033589,0.068399,-0.086859,0.001384,-0.060444,-0.061281,-0.060400,-0.093999,-0.092369,-0.124590,-0.161243,-0.097935,-0.217951,-0.203787,-0.243991,-0.247703,-0.249119,-0.288605,-0.245743,-0.278901,-0.252971,-0.274686,-0.396492,-0.327032,-0.369046,-0.389502,-0.326609,-0.460507,-0.370855,-0.406940,-0.413161,-0.414538,-0.433182,-0.365041,-0.393919,-0.456366,-0.328666,-0.429168,-0.221555,-0.360172,-0.041844,0.391525,3.484621,5.493065,2.252780,2.072673,1.989481,2.026116,2.038027,1.861826,1.582938,1.598953,1.115300,0.694871,-0.041733,-0.679635,-1.680573,-1.667062,-1.154516,-1.016388,-1.255085,-1.230871,-1.143181,-0.742249,-1.066835,-1.110835,-1.272860,-1.343532,-1.234871,-1.263687,-1.237806,-1.046089,-1.190952,-1.016120,-1.157143,-1.023912,-1.044378,-1.060497,-0.997252,-0.994042,-1.012566,-0.887752,-0.973676,-0.778542,-0.880921,-0.744836,-0.750300,-0.636872,-0.550456,-0.484576,-0.460352,-0.273651,-0.400744,-0.146038,-0.286925,-0.113883,-0.212376,-0.150505,-0.248962,-0.194818,-0.402782,-0.205175,-0.599768,-0.205616,-0.886193,0.000000,8.000000
3.182078,2.436682,1.310253,1.910362,1.586119,1.926181,1.498066,1.361828,1.265225,1.052361,0.550960,-0.144800,-1.103483,-2.066447,-2.636109,-2.186890,-2.011490,-1.898703,-1.707389,-1.365802,-0.950064,-0.848373,-1.005055,-0.905127,-0.902840,-0.596701,-0.666738,-0.569028,-0.453146,-0.431120,-0.467853,-0.338966,-0.289028,-0.180993,-0.313374,-0.162804,-0.115605,-0.129468,0.105945,0.328282,0.283161,0.328020,0.325800,0.450212,0.228222,0.277645,0.390176,0.417781,0.520894,0.440223,0.459277,0.685126,0.649014,0.731436,0.568022,0.516054,0.414821,0.408775,0.479764,0.307570,0.488870,0.407294,0.361610,0.319051,0.136434,0.150961,0.141462,0.057310,0.252875,0.153753,0.184602,0.171369,0.177342,0.150684,0.000375,0.115874,0.083901,0.096739,0.155517,-0.029443,0.131528,0.028374,-0.012109,-0.013811,-0.090930,0.005787,-0.092687,-0.090293,0.024249,-0.109352,-0.085344,-0.111856,-0.147297,-0.116091,-0.200797,-0.189264,-0.231876,-0.237383,-0.159023,-0.267978,-0.117212,-0.194938,-0.250264,-0.170487,-0.232355,-0.195036,-0.212126,-0.330791,-0.198303,-0.350637,-0.206940,-0.290221,-0.247986,-0.210266,-0.306367,-0.239537,-0.197353,-0.325041,-0.105671,-0.276072,0.268636,0.314139,3.633518,4.915706,1.827434,2.241466,2.009537,2.206148,2.057468,1.961116,1.882848,1.657615,0.998976,0.375190,-0.681159,-1.665703,-2.290503,-1.787977,-1.655592,-1.697092,-1.393681,-0.949729,-0.727905,-0.836037,-1.063262,-0.900743,-0.947431,-0.756262,-0.734218,-0.690240,-0.667345,-0.652644,-0.718831,-0.614494,-0.725104,-0.571787,-0.707786,-0.657708,-0.645709,-0.654254,-0.573425,-0.530885,-0.524041,-0.350040,-0.444789,-0.187977,-0.226787,-0.003001,0.022284,0.124020,0.143636,0.206409,0.163802,0.306935,0.242477,0.412747,0.231129,0.341557,0.248185,0.261341,0.046799,0.130467,-0.213200,0.086000,-0.772009,0.000000,0.000000,8.000000
3.865402,3.337862,1.932713,2.632693,2.180730,2.558337,2.120209,2.286188,1.987336,1.624478,0.917466,0.185712,-0.900621,-1.594721,-1.520650,-1.055701,-1.250915,-0.977994,-0.649157,-0.280964,-0.332404,-0.532414,-0.511777,-0.439356,-0.400155,-0.240663,-0.289417,-0.199643,-0.220404,-0.244061,-0.207875,-0.228890,-0.198641,-0.174656,-0.278307,-0.156062,-0.242638,-0.137321,-0.107134,-0.096884,0.035732,0.014636,0.135596,0.233021,0.296251,0.465142,0.450182,0.567396,0.553633,0.585382,0.628496,0.669543,0.717513,0.710311,0.635177,0.717942,0.597883,0.547140,0.455425,0.348247,0.324597,0.089850,-0.014818,-0.065245,-0.162426,-0.133578,-0.209283,-0.161947,-0.189872,-0.262260,-0.201730,-0.267910,-0.230558,-0.294708,-0.384563,-0.290789,-0.430188,-0.358563,-0.393553,-0.475698,-0.443766,-0.539398,-0.519755,-0.558999,-0.557813,-0.496421,-0.648588,-0.597129,-0.699724,-0.700320,-0.637209,-0.764677,-0.650480,-0.710237,-0.715108,-0.692997,-0.718449,-0.640209,-0.688589,-0.710020,-0.628177,-0.731602,-0.616637,-0.666558,-0.667413,-0.655446,-0.659041,-0.640805,-0.590721,-0.652661,-0.521374,-0.644746,-0.451204,-0.598174,-0.355207,-0.451533,-0.123189,0.247168,3.759022,4.325333,1.521526,1.903859,1.711824,1.944589,1.702401,1.777768,1.641366,1.490943,0.761617,0.104375,-0.823024,-1.741920,-1.577812,-1.185763,-1.311280,-1.194370,-1.140068,-0.667559,-0.787103,-0.844207,-0.916770,-0.963842,-0.792564,-0.741543,-0.695169,-0.581004,-0.673186,-0.510377,-0.637556,-0.462643,-0.506813,-0.469984,-0.460891,-0.457429,-0.461194,-0.388754,-0.430759,-0.162804,-0.312172,-0.092775,-0.107291,-0.024116,0.124650,0.156606,0.207848,0.312236,0.235501,0.462553,0.304610,0.425205,0.282986,0.394197,0.374095,0.390356,0.232223,0.304894,-0.017562,0.290364,-0.109963,0.267737,-0.474315,0.000000,0.000000,0.000000,0.000000,0.000000,0.000000,8.000000
3.409514,2.371314,1.421856,1.914768,1.683802,1.848406,1.583946,1.725946,1.430717,1.001029,0.121104,-0.557811,-1.752349,-1.837205,-1.398544,-1.391550,-1.390273,-1.300832,-0.949621,-0.787725,-1.019332,-0.963734,-1.139307,-0.948825,-0.879186,-0.841415,-0.717210,-0.774455,-0.679421,-0.701666,-0.669232,-0.562434,-0.636999,-0.548961,-0.588705,-0.574540,-0.518904,-0.551383,-0.356900,-0.345074,-0.328054,-0.142063,-0.223072,0.016619,0.032613,0.091147,0.194045,0.154045,0.287988,0.298179,0.253674,0.284505,0.205177,0.337575,0.272944,0.209366,0.181191,0.008707,0.037494,0.013691,-0.078220,-0.113321,-0.159278,-0.086516,-0.102957,-0.098656,-0.093582,-0.228443,-0.202944,-0.213715,-0.216684,-0.136650,-0.197336,-0.111090,-0.143148,-0.180610,-0.155652,-0.351052,-0.230285,-0.287837,-0.345511,-0.279455,-0.348310,-0.250235,-0.246576,-0.166509,-0.113181,-0.272824,-0.124994,-0.156471,-0.173955,-0.223674,-0.458282,-0.506684,-0.571189,-0.502741,-0.470861,-0.578610,-0.489040,-0.633145,-0.611788,-0.575686,-0.697745,-0.609442,-0.612586,-0.653454,-0.581355,-0.613620,-0.460538,-0.545371,-0.494638,-0.513314,-0.577877,-0.566984,-0.432579,-0.392517,-0.245457,-0.352276,0.065483,0.694466,4.368197,3.840108,1.513170,2.084184,2.068215,2.431415,2.229108,2.060470,2.155352,2.163120,2.062280,1.748798,0.812384,0.310736,-1.038625,-1.192752,-0.845367,-0.931690,-1.125853,-1.305764,-1.247562,-1.039259,-1.107751,-0.762138,-0.826396,-0.915715,-0.936346,-0.920879,-0.655346,-0.615059,-0.553699,-0.382189,-0.467867,-0.323456,-0.528152,-0.491990,-0.476876,-0.275755,-0.160903,-0.275296,-0.192842,-0.024148,-0.023272,0.119886,0.145814,0.433026,0.506406,0.530978,0.554568,0.812163,0.996725,0.983429,0.835682,0.906412,0.817967,1.017465,0.900082,0.948630,0.774474,0.804193,0.502320,0.809873,0.158240,0.000000,0.000000,0.000000,0.000000,8.000000
3.169450,1.985417,1.448547,1.680946,1.603925,1.719005,1.496405,1.581260,1.105723,0.722461,-0.229067,-0.840932,-1.718668,-1.959853,-1.402028,-1.264159,-1.284010,-1.193859,-0.987555,-0.591088,-0.837735,-0.972235,-1.078190,-1.050329,-0.934115,-1.018622,-1.004085,-0.986964,-1.076117,-1.022807,-1.122057,-1.046892,-1.106319,-1.132412,-1.042658,-1.068178,-1.083408,-1.063807,-1.063485,-0.917211,-0.977058,-0.790144,-0.739263,-0.621359,-0.416545,-0.426211,-0.293838,-0.095623,-0.054975,0.110254,0.093004,0.277805,0.231970,0.177758,0.236424,0.129607,0.222295,0.132457,0.081596,0.088916,-0.068901,-0.012205,-0.078592,-0.186039,-0.193757,-0.250034,-0.213025,-0.235867,-0.314523,-0.175400,-0.239176,-0.249938,-0.269718,-0.307677,-0.205447,-0.238676,-0.310378,-0.247575,-0.203783,-0.240827,-0.327642,-0.309495,-0.388394,-0.448698,-0.388405,-0.378607,-0.326357,-0.385373,-0.450444,-0.394139,-0.478787,-0.395731,-0.516283,-0.509768,-0.422414,-0.546526,-0.502175,-0.480675,-0.492951,-0.492116,-0.527311,-0.451521,-0.515252,-0.490342,-0.423015,-0.447577,-0.402673,-0.481261,-0.477181,-0.459927,-0.482782,-0.338593,-0.339884,-0.399972,-0.337865,-0.367093,-0.232818,-0.319680,-0.224722,-0.245237,-0.210996,-0.281840,0.046015,0.338185,3.136217,5.174760,2.329030,2.086878,2.133811,2.211475,2.100382,2.110664,2.032132,1.963908,1.481981,0.818069,0.046652,-0.728812,-1.603593,-1.460374,-1.331240,-1.263354,-1.202176,-1.001853,-0.728887,-0.335495,-0.194410,-0.230259,-0.215045,-0.226304,-0.178752,0.116507,0.067214,0.304051,0.306834,0.357244,0.470147,0.402754,0.433589,0.413581,0.435130,0.585469,0.427721,0.350205,0.259545,0.310397,0.330581,0.246527,0.328895,0.467544,0.419709,0.482907,0.566083,0.867985,0.821044,0.822263,0.972575,1.062591,1.024017,1.067847,1.078588,1.375852,1.036516,1.140647,0.962144,1.100250,0.828143,8.000000
3.501419,2.979346,2.281478,2.603016,2.441434,2.628111,2.197180,2.212664,1.827585,1.390487,0.560580,-0.204359,-1.059667,-1.974508,-1.885209,-1.502407,-1.583836,-1.326280,-1.131827,-0.600662,-0.444773,-0.505405,-0.454318,-0.605856,-0.453899,-0.341436,-0.327387,-0.192406,-0.275358,-0.211112,-0.225450,-0.286301,-0.147391,-0.236642,-0.154573,-0.131784,-0.163326,-0.049796,-0.048611,0.097741,0.144426,0.136790,0.233239,0.249947,0.346310,0.374997,0.308594,0.360636,0.283623,0.371896,0.399829,0.397749,0.519358,0.499272,0.512362,0.503697,0.394496,0.480806,0.314413,0.297516,0.258239,0.093657,0.131685,0.014974,-0.002986,-0.034182,-0.121940,-0.078425,-0.188808,-0.179808,-0.251730,-0.287787,-0.204617,-0.303199,-0.279354,-0.257486,-0.291515,-0.285833,-0.361887,-0.327325,-0.365689,-0.430840,-0.429280,-0.515895,-0.491706,-0.502845,-0.540751,-0.530166,-0.656001,-0.563956,-0.612315,-0.642268,-0.577738,-0.670913,-0.584576,-0.626040,-0.711007,-0.646256,-0.683614,-0.630286,-0.711415,-0.724063,-0.636169,-0.686261,-0.589185,-0.638860,-0.711030,-0.634900,-0.657573,-0.630978,-0.598488,-0.652139,-0.543089,-0.663261,-0.580406,-0.599219,-0.571102,-0.539571,-0.502120,-0.501919,-0.424819,-0.483397,0.061774,0.762667,4.504088,3.919857,1.537601,1.957319,1.639583,1.934395,1.713117,1.628026,1.567316,1.308392,0.742668,0.018935,-0.823033,-1.729555,-2.088034,-1.448265,-1.411715,-1.364229,-1.274213,-0.971797,-0.648195,-0.628798,-0.797368,-0.700744,-0.769254,-0.516941,-0.563805,-0.479163,-0.391573,-0.418207,-0.414429,-0.374095,-0.438801,-0.323033,-0.395246,-0.275172,-0.302039,-0.202192,-0.164825,-0.132846,-0.083207,0.004140,0.021135,0.215435,0.205793,0.381962,0.378704,0.467608,0.536468,0.558817,0.590005,0.711513,0.597750,0.742922,0.578472,0.620243,0.473660,0.474405,0.358065,0.490172,0.262518,0.462184,0.027082,8.000000
3.482421,2.402071,1.359832,1.759248,1.490179,1.784837,1.374384,1.502420,1.236552,0.886008,0.157555,-0.587581,-1.501887,-2.215929,-1.857460,-1.480335,-1.567810,-1.434672,-1.274023,-0.884070,-0.741084,-0.902865,-0.880324,-0.897614,-0.771436,-0.652395,-0.703414,-0.534539,-0.567544,-0.568073,-0.527768,-0.576318,-0.509814,-0.514693,-0.480513,-0.423160,-0.411037,-0.301907,-0.311812,-0.245762,-0.174822,-0.144357,0.003416,0.063393,0.157010,0.250860,0.252644,0.386288,0.378731,0.421833,0.524471,0.468618,0.531659,0.487436,0.411501,0.389137,0.268884,0.263616,0.254464,0.220522,0.162927,0.129779,0.276629,0.090007,0.042410,0.075288,-0.050904,-0.046962,-0.267665,-0.321352,-0.268059,-0.337312,-0.324760,-0.412499,-0.384877,-0.487319,-0.597414,-0.495932,-0.584628,-0.587860,-0.604565,-0.700407,-0.599866,-0.610040,-0.596871,-0.647931,-0.729930,-0.650741,-0.734294,-0.625767,-0.632536,-0.716364,-0.696852,-0.758816,-0.609720,-0.626191,-0.715822,-0.660307,-0.750650,-0.633902,-0.646634,-0.708960,-0.630029,-0.682482,-0.580916,-0.529164,-0.618997,-0.596247,-0.676673,-0.533465,-0.594806,-0.527204,-0.470257,-0.465179,-0.475792,-0.349469,-0.380774,-0.014467,0.073823,3.268585,5.374591,2.010750,2.097129,1.908375,2.082532,1.812616,1.752448,1.887470,1.664860,1.189455,0.538378,-0.326538,-1.323050,-1.603178,-0.967901,-1.148624,-1.181220,-1.113030,-0.867544,-0.700749,-0.617215,-0.714091,-0.625985,-0.691467,-0.462492,-0.527251,-0.348074,-0.245424,-0.266789,-0.213795,-0.100754,-0.268051,-0.141667,-0.216505,0.059755,0.000481,0.059443,0.115581,0.223215,0.211006,0.275933,0.440045,0.579525,0.577721,0.857483,0.853294,0.933129,0.893711,1.027951,1.160049,1.109902,0.971447,1.004764,0.711289,0.966945,0.769605,0.761901,0.581645,0.809853,0.606239,0.814994,0.282099,0.000000,0.000000,0.000000,0.000000,0.000000,8.000000
3.436183,2.508200,1.153279,1.734471,1.347315,1.576750,1.087412,1.521380,1.142093,0.906604,0.127930,-0.535030,-1.656091,-2.066274,-1.575015,-1.486443,-1.715733,-1.544493,-1.435444,-1.149434,-1.121928,-1.132468,-1.138555,-1.122497,-1.010555,-0.935374,-0.914718,-0.676917,-0.766146,-0.681852,-0.596443,-0.686506,-0.665332,-0.650094,-0.511933,-0.397419,-0.484715,-0.325479,-0.313679,-0.214372,-0.263648,-0.046733,0.059297,0.111320,0.284125,0.423371,0.394464,0.463684,0.459391,0.695313,0.632442,0.530933,0.517887,0.312289,0.379271,0.414772,0.222217,0.201422,0.200954,0.276799,0.174800,0.127303,0.101179,0.079904,0.202323,0.139169,0.198833,0.146305,0.020567,0.106961,0.103896,0.038904,0.126251,0.008683,-0.021586,-0.070106,0.117780,0.121607,-0.034408,0.047408,-0.075270,-0.115376,-0.034347,-0.071079,-0.108732,-0.291657,-0.251335,-0.111826,-0.188397,-0.055085,-0.100948,-0.041649,0.065402,-0.095000,0.002464,-0.139900,-0.131628,-0.144191,-0.469510,-0.474483,-0.387864,-0.441921,-0.377192,-0.466358,-0.296957,-0.338475,-0.319933,-0.441405,-0.391436,-0.475979,-0.428295,-0.444997,-0.474853,-0.531007,-0.068252,-0.153373,0.190643,0.470534,3.446382,4.821759,1.754604,2.187325,2.157552,2.556941,2.491590,2.335037,2.306167,2.352700,1.870522,1.078000,0.112084,-1.047789,-1.706402,-1.317765,-1.437498,-1.595291,-1.522393,-1.156393,-1.199198,-0.862539,-0.891007,-0.843359,-0.913732,-0.686829,-0.576852,-0.527375,-0.506174,-0.418875,-0.495113,-0.356539,-0.484050,-0.373554,-0.444091,-0.351164,-0.330579,-0.302249,-0.232313,-0.145472,-0.141980,0.081424,-0.022119,0.195495,0.219338,0.342605,0.306157,0.385761,0.436940,0.471749,0.361663,0.470780,0.244195,0.360847,0.151663,0.193944,-0.001738,0.010471,-0.186100,-0.052602,-0.486254,-0.073295,-0.841372,0.000000,0.000000,0.000000,0.000000,0.000000,0.000000,8.000000
3.204802,2.817158,1.747370,2.456203,2.258068,2.684484,2.261240,2.414886,2.304098,2.199274,1.462767,0.814690,-0.192073,-0.918197,-0.810310,-0.672876,-0.910546,-0.885029,-0.633196,-0.554627,-0.418461,-0.265209,-0.328039,-0.302185,-0.261104,-0.048928,-0.055729,0.000434,0.041993,0.030038,0.072354,0.071083,0.045435,0.099318,0.059929,0.168735,0.132532,0.208213,0.273046,0.283586,0.420934,0.441331,0.478526,0.622706,0.637710,0.709255,0.681927,0.777591,0.803102,0.744305,0.777621,0.702889,0.655956,0.644317,0.532976,0.511273,0.400503,0.335781,0.330223,0.172393,0.171029,0.088806,0.098234,0.097137,0.041491,0.063913,0.007699,0.005295,0.047419,-0.041036,0.042697,-0.004696,-0.019771,0.006903,-0.066258,-0.016412,-0.082428,-0.086998,-0.088061,-0.186850,-0.122238,-0.204613,-0.213888,-0.188412,-0.295851,-0.287310,-0.359954,-0.320351,-0.324571,-0.453124,-0.410292,-0.470823,-0.473991,-0.416587,-0.503241,-0.469829,-0.527819,-0.488536,-0.486289,-0.565552,-0.481989,-0.473369,-0.381470,-0.330775,-0.431125,-0.427444,-0.517072,-0.512377,-0.474593,-0.610730,-0.637595,-0.704037,-0.638054,-0.632589,-0.706474,-0.617270,-0.683794,-0.589896,-0.562044,-0.324708,0.466452,3.490994,2.867989,1.005134,1.330398,1.363368,1.623769,1.726506,1.903905,1.919068,2.228214,2.046529,2.018199,1.404144,0.903824,0.011882,-0.500372,-0.505250,-0.478087,-0.829726,-1.018468,-1.331796,-1.251490,-1.365392,-1.346931,-1.268391,-1.381459,-1.464259,-1.325756,-1.346354,-1.196293,-1.224139,-1.147850,-1.146559,-1.119687,-1.118396,-1.088100,-1.104049,-1.040818,-1.180264,-0.986857,-1.092301,-0.991358,-0.987695,-0.888033,-0.845363,-0.778135,-0.803582,-0.618048,-0.646481,-0.425836,-0.516124,-0.312282,-0.349710,-0.285995,-0.326049,-0.211781,-0.320377,-0.146690,-0.444393,-0.166574,-0.511731,-0.083654,-0.785423,0.000000,0.000000,0.000000,8.000000
2.906315,2.346487,1.588399,1.876377,1.635784,1.775477,1.464439,1.654248,1.174249,0.837823,-0.051285,-0.917024,-2.081143,-2.448083,-1.835594,-1.776673,-1.879829,-1.514312,-1.102414,-0.601536,-0.758569,-0.651439,-0.560456,-0.389714,-0.325377,-0.259150,-0.057951,-0.126498,-0.338814,-0.224493,-0.272777,-0.397018,-0.357077,-0.518387,-0.503934,-0.427964,-0.381285,-0.361701,-0.472620,-0.369355,-0.271770,-0.171930,-0.128254,0.033863,0.324417,0.318605,0.456240,0.547753,0.394657,0.502054,0.716788,0.902883,0.902445,0.842280,0.988284,0.911646,0.881173,0.792341,0.645268,0.658290,0.423061,0.477098,0.576909,0.390742,0.348517,0.214351,0.227980,0.243025,0.261710,0.367324,0.261418,0.318830,0.279574,0.182507,0.222414,0.187572,0.291816,0.283517,0.102618,0.218613,0.155113,0.176996,0.151095,0.078630,0.173820,0.085061,0.019990,-0.022786,0.016704,0.096655,-0.039497,-0.012906,0.010644,-0.095093,0.027375,-0.059182,-0.055000,-0.144394,-0.165412,-0.141686,-0.178976,-0.198792,-0.158535,-0.210344,-0.128322,-0.205892,-0.140442,-0.186410,-0.224611,-0.156684,-0.222354,-0.257495,-0.209792,-0.289834,-0.149224,-0.304889,-0.215166,-0.280996,-0.234605,-0.205792,-0.108837,-0.157239,0.259795,0.731305,4.418296,4.030080,1.659119,2.225810,2.018465,2.467693,2.206952,2.208866,2.047458,1.847132,1.540867,0.734651,0.111171,-0.710446,-1.601372,-1.256799,-1.357024,-1.453851,-1.537304,-1.326823,-1.128591,-1.150769,-1.099695,-1.112041,-1.354440,-1.146178,-1.149132,-1.003468,-0.996517,-0.964993,-0.871067,-0.923529,-0.937435,-0.934217,-1.011464,-0.901128,-1.028159,-0.912428,-0.878338,-0.807184,-0.700909,-0.683814,-0.587504,-0.406397,-0.508090,-0.335904,-0.372024,-0.202091,-0.305430,-0.282608,-0.288464,-0.200672,-0.128667,-0.071157,-0.171888,0.049882,-0.127591,0.085681,-0.131879,0.002067,-0.254946,-0.053618,-0.531898,8.000000
3.673264,3.045632,2.273504,2.782942,2.690852,2.991539,2.577452,2.754211,2.325522,2.273838,1.470347,0.792738,0.079622,-0.982081,-1.030567,-0.804191,-1.064121,-1.066121,-1.055036,-0.712762,-0.735342,-0.694079,-0.649342,-0.866774,-0.833346,-0.685177,-0.671440,-0.519779,-0.595343,-0.440592,-0.478091,-0.507717,-0.492881,-0.570064,-0.507943,-0.538785,-0.563787,-0.426712,-0.432606,-0.287252,-0.251150,-0.216145,0.002114,-0.036271,0.034240,0.099193,0.165029,0.222722,0.118887,0.182433,0.191215,0.301706,0.380841,0.294824,0.425700,0.410716,0.429225,0.460326,0.350419,0.362376,0.244550,0.225293,0.185022,-0.006690,0.077237,-0.038988,-0.066488,-0.056565,-0.180945,-0.102124,-0.171100,-0.180940,-0.180861,-0.245057,-0.184050,-0.270705,-0.289651,-0.218305,-0.367796,-0.259082,-0.326704,-0.357060,-0.313619,-0.405550,-0.327666,-0.422213,-0.404029,-0.401414,-0.531717,-0.447050,-0.526550,-0.538074,-0.534639,-0.578198,-0.569842,-0.565893,-0.582634,-0.522959,-0.643893,-0.526981,-0.620343,-0.557319,-0.541984,-0.623564,-0.475162,-0.545367,-0.549077,-0.522380,-0.620237,-0.509189,-0.596008,-0.508662,-0.462457,-0.548005,-0.476697,-0.488148,-0.521561,-0.482095,-0.500550,-0.295215,-0.382657,-0.003659,0.581091,4.145114,3.482062,1.323461,1.846398,1.570580,1.810878,1.638578,1.671694,1.491284,1.273702,0.498329,-0.109504,-1.063969,-1.921129,-1.858432,-1.398075,-1.262870,-1.282145,-1.264556,-0.867479,-0.662750,-0.642376,-0.861555,-0.784631,-0.805192,-0.642526,-0.538585,-0.539006,-0.512891,-0.441626,-0.509303,-0.385281,-0.488891,-0.412867,-0.407356,-0.441580,-0.412096,-0.323365,-0.387744,-0.216729,-0.303048,-0.108957,-0.171553,0.042515,0.102746,0.133001,0.254549,0.291865,0.273904,0.456155,0.358834,0.634157,0.459273,0.611775,0.522640,0.553719,0.521048,0.620992,0.482582,0.749977,0.258810,0.523797,-0.161104,0.000000,8.000000
3.213418,2.044377,1.363195,1.747522,1.518374,1.737443,1.498036,1.558235,1.270250,0.797305,-0.016564,-0.676350,-1.808457,-2.030098,-1.656355,-1.336956,-1.362891,-1.375299,-1.117501,-0.770383,-0.712429,-0.861701,-0.924658,-0.854510,-0.818490,-0.612453,-0.632651,-0.601499,-0.538043,-0.570654,-0.510481,-0.515029,-0.549861,-0.456367,-0.528084,-0.506840,-0.417447,-0.460442,-0.344440,-0.352067,-0.262854,-0.207135,-0.144098,0.061402,0.002715,0.163817,0.203405,0.187242,0.337001,0.301418,0.472552,0.463270,0.441453,0.525723,0.410820,0.491081,0.484425,0.464503,0.574773,0.377024,0.249475,0.145466,0.056664,0.053452,-0.140685,-0.158290,-0.299324,-0.284599,-0.266157,-0.390795,-0.333829,-0.420191,-0.485246,-0.449921,-0.610787,-0.506131,-0.580097,-0.601714,-0.564566,-0.700565,-0.594511,-0.627786,-0.601653,-0.592822,-0.665702,-0.623604,-0.704286,-0.683972,-0.667992,-0.776477,-0.687020,-0.745033,-0.734446,-0.694853,-0.747597,-0.669574,-0.792117,-0.804387,-0.759668,-0.843259,-0.708120,-0.748033,-0.606130,-0.688842,-0.745250,-0.620810,-0.642682,-0.658402,-0.633429,-0.749331,-0.642407,-0.777466,-0.534244,-0.437457,-0.510729,-0.569744,-0.514270,-0.485780,-0.338914,-0.427776,0.041751,0.119114,3.023618,4.742407,1.844084,1.931852,1.801437,1.933132,1.923084,1.669521,1.684659,1.710342,1.366755,0.830214,-0.128135,-0.745129,-1.864090,-1.584289,-1.241669,-1.288944,-1.284657,-1.263225,-0.957239,-0.588509,-0.698397,-0.543283,-0.701164,-0.429717,-0.306187,-0.280123,-0.205458,-0.178151,-0.183105,-0.121986,-0.149830,0.070450,0.021409,0.163408,0.168066,0.261202,0.268795,0.251478,0.378480,0.364446,0.452123,0.769044,0.518278,0.690217,0.852849,1.014563,1.161792,1.073631,1.173203,1.249568,1.113203,1.248239,1.151942,1.363356,1.199762,1.349722,1.303903,1.343577,1.195673,1.261879,0.853784,0.000000,0.000000,8.000000
2.912497,2.104383,0.934438,1.457751,1.107901,1.478720,1.020810,1.133924,1.082235,0.922362,0.419371,-0.393787,-1.053388,-2.008701,-2.218031,-1.639992,-1.757682,-1.675935,-1.745328,-1.495054,-1.124676,-1.118675,-1.072036,-1.098005,-1.044351,-0.755375,-0.818376,-0.685358,-0.695382,-0.662198,-0.642645,-0.637529,-0.512283,-0.438190,-0.427553,-0.304444,-0.325027,-0.202931,-0.304153,-0.162325,-0.152280,-0.139499,0.154614,0.095295,0.019381,0.306028,0.353937,0.601881,0.519481,0.559545,0.679075,0.580288,0.626464,0.622146,0.694355,0.727893,0.658873,0.807127,0.703929,0.728007,0.619196,0.527669,0.452582,0.293739,0.372892,0.404833,0.353797,0.337846,0.244142,0.063835,0.122882,0.311463,0.278963,0.080173,0.049008,0.113031,0.077467,0.202201,0.013052,0.045208,0.034251,-0.131639,0.130408,0.016614,-0.054141,-0.211683,-0.178633,0.063787,-0.177048,-0.150680,0.002353,-0.157907,-0.190935,-0.058005,-0.176866,-0.310120,-0.165441,-0.177794,-0.211835,-0.286713,-0.039967,-0.000916,-0.076651,-0.226209,-0.070324,-0.063645,-0.109297,-0.053622,-0.081806,0.016050,0.082720,0.003940,0.098619,-0.204157,-0.033121,0.035806,0.020870,0.021231,0.344560,0.499601,3.728895,4.587417,2.026397,2.376404,2.302071,2.483190,2.226570,2.241650,2.044257,2.020304,1.596638,0.784246,-0.086295,-1.198146,-2.127400,-1.781353,-1.891571,-1.953978,-2.011985,-1.507112,-1.354688,-1.099230,-0.869534,-0.941312,-0.970140,-0.777187,-0.777651,-0.589114,-0.646294,-0.500028,-0.601777,-0.577406,-0.561831,-0.580985,-0.608147,-0.524770,-0.646625,-0.505925,-0.671552,-0.492488,-0.567011,-0.480047,-0.368292,-0.291564,-0.280208,-0.157945,-0.192440,0.025913,0.001604,0.156012,0.149648,0.283405,0.210719,0.256767,0.193582,0.230502,0.091863,0.250934,-0.086153,0.153550,-0.200038,0.075449,-0.456922,0.000000,0.000000,0.000000,0.000000,8.000000
3.540020,3.374772,2.168524,2.798986,2.542049,2.703702,2.414559,2.485018,2.265150,2.198878,1.475893,0.775723,-0.124859,-1.160421,-1.202009,-1.033515,-1.204174,-1.240378,-1.003695,-0.647775,-0.578394,-0.251854,-0.271754,-0.336350,-0.209960,-0.152577,-0.048044,-0.006745,0.030976,0.065678,-0.016646,0.053351,0.024156,-0.006849,0.060715,-0.011474,0.047791,-0.000777,0.015598,0.095101,0.037458,0.200903,0.245530,0.285438,0.357445,0.373038,0.479740,0.564161,0.602857,0.690658,0.725672,0.770533,0.723267,0.742021,0.720523,0.654504,0.711398,0.575978,0.553574,0.532267,0.420740,0.441427,0.395283,0.395840,0.408134,0.230195,0.242348,0.205582,0.220357,0.152059,-0.003468,-0.002484,-0.015507,-0.056724,-0.041782,-0.099931,-0.095175,-0.196070,-0.163377,-0.221722,-0.305283,-0.233030,-0.318550,-0.307872,-0.294875,-0.391093,-0.338483,-0.428643,-0.429883,-0.411206,-0.486839,-0.418614,-0.535170,-0.483925,-0.495772,-0.568505,-0.505675,-0.568128,-0.576349,-0.551496,-0.653172,-0.565710,-0.661342,-0.591903,-0.625433,-0.653859,-0.561687,-0.633651,-0.624836,-0.532888,-0.648149,-0.527807,-0.669041,-0.559377,-0.555393,-0.495046,-0.505297,-0.230788,-0.048303,2.823368,3.812519,1.190804,1.485943,1.373257,1.662947,1.554353,1.592825,1.449231,1.591465,1.357656,0.923717,0.317131,-0.461261,-1.231351,-0.871837,-0.908544,-0.996011,-1.294226,-1.119337,-1.160282,-1.149651,-1.112614,-1.206582,-1.352855,-1.198071,-1.205873,-1.047824,-1.111160,-0.929798,-1.012019,-0.964469,-1.002903,-0.986290,-0.980613,-0.915144,-1.007316,-0.865802,-1.003446,-0.872073,-0.926423,-0.782581,-0.759396,-0.657088,-0.656213,-0.468774,-0.487421,-0.232370,-0.333714,-0.106494,-0.154515,-0.045837,-0.038470,0.047477,-0.051075,0.066320,-0.139951,0.097931,-0.200533,0.103041,-0.322446,0.071055,-0.588387,0.000000,0.000000,0.000000,0.000000,0.000000,8.000000
3.766730,2.900068,1.626554,2.353285,2.097865,2.483678,2.126984,2.173460,2.106244,1.964209,1.277688,0.741233,-0.276049,-1.025413,-0.863007,-0.690789,-0.968145,-1.142709,-1.038784,-0.917382,-0.841638,-0.832568,-0.868280,-0.955455,-1.114096,-0.913874,-0.901611,-0.824083,-0.694671,-0.734899,-0.689753,-0.695902,-0.685205,-0.608122,-0.705383,-0.619896,-0.671045,-0.612438,-0.570630,-0.606700,-0.557845,-0.547623,-0.472268,-0.299199,-0.346833,-0.183306,-0.110835,-0.011470,0.163291,0.167724,0.303096,0.304641,0.320673,0.426051,0.308074,0.415830,0.279639,0.219290,0.231317,0.138365,0.160114,0.095347,0.008578,0.043428,-0.060492,0.078313,0.006665,0.055613,0.096735,-0.024937,0.060232,0.026354,0.004613,-0.001334,-0.191928,-0.130621,-0.149639,-0.179573,-0.115537,-0.260281,-0.119374,-0.223243,-0.256185,-0.266589,-0.291783,-0.299208,-0.346293,-0.435649,-0.396360,-0.481056,-0.429324,-0.482782,-0.498726,-0.496208,-0.531114,-0.502951,-0.545913,-0.554421,-0.512209,-0.576915,-0.491870,-0.577476,-0.533054,-0.514789,-0.601528,-0.547717,-0.585572,-0.580400,-0.522402,-0.584252,-0.444055,-0.540185,-0.448390,-0.426647,-0.462574,-0.442080,-0.389778,-0.425585,-0.198372,-0.303982,0.203984,0.553599,4.046108,4.777668,1.649227,1.939276,1.810135,2.051016,1.997755,1.888883,1.879867,1.936971,1.844909,1.506956,0.759568,0.239110,-0.780197,-0.465920,-0.304510,-0.569370,-0.820940,-0.926518,-0.867796,-0.846322,-0.934062,-0.749881,-0.990823,-0.954374,-0.879586,-0.843516,-0.727491,-0.669108,-0.736933,-0.653722,-0.740391,-0.553135,-0.682372,-0.579149,-0.563927,-0.562488,-0.546817,-0.525194,-0.508118,-0.382141,-0.431089,-0.207068,-0.264651,-0.027103,0.030631,0.070007,0.167179,0.218953,0.234290,0.412369,0.329048,0.494126,0.325680,0.536049,0.428170,0.479292,0.333275,0.509895,0.234700,0.537434,-0.084133,0.000000,0.000000,8.000000
3.695913,2.360818,1.006301,1.616270,1.335821,1.708359,1.367691,1.472021,1.422170,1.459845,1.217403,0.568895,0.024924,-0.877522,-1.146166,-0.643263,-0.933645,-1.120505,-1.351746,-1.291422,-1.254525,-1.333295,-1.222340,-1.281112,-1.441661,-1.276898,-1.296152,-1.174534,-1.089194,-1.138705,-1.090281,-1.135087,-1.038958,-1.026200,-1.074843,-0.945533,-1.007257,-0.955340,-0.956807,-0.941471,-0.833966,-0.844492,-0.710560,-0.649166,-0.574766,-0.362590,-0.409343,-0.276130,-0.229290,-0.214726,-0.069362,-0.076160,0.001995,-0.037110,-0.006108,0.080562,-0.011786,-0.023603,-0.016283,-0.060056,-0.065206,-0.172886,-0.048420,-0.017395,-0.094145,-0.158930,-0.186069,-0.166954,-0.228964,-0.241143,-0.340212,-0.393754,-0.333610,-0.326160,-0.329487,-0.331265,-0.448051,-0.409578,-0.451260,-0.466731,-0.378243,-0.466578,-0.499315,-0.516158,-0.488610,-0.474688,-0.718794,-0.663143,-0.588218,-0.594595,-0.519615,-0.593216,-0.600905,-0.613041,-0.613415,-0.537582,-0.576030,-0.431046,-0.606323,-0.611241,-0.532029,-0.536305,-0.455260,-0.461437,-0.504218,-0.418568,-0.463816,-0.359107,-0.528425,-0.539459,-0.483659,-0.488438,-0.402521,-0.266796,-0.296222,-0.208910,-0.254854,0.066333,0.510136,4.169866,4.309588,1.708081,2.042500,1.621946,1.811159,1.723430,1.691984,1.842282,1.894092,1.540481,1.023549,0.183508,-0.480122,-1.364566,-0.976807,-0.779870,-0.903382,-0.903792,-0.685861,-0.559118,-0.328686,-0.500197,-0.399693,-0.662960,-0.276246,-0.065468,-0.175133,-0.024904,-0.073383,-0.178130,0.138008,0.072423,0.215413,0.120173,0.183844,0.109640,0.409425,0.434619,0.298434,0.300333,0.579678,0.506418,0.817407,0.809017,0.970587,0.974273,1.097539,1.094691,1.055562,1.102056,1.294692,1.185289,1.094921,0.998290,1.229189,0.891663,0.994000,0.872561,0.964931,0.519332,0.941285,0.535657,0.000000,0.000000,0.000000,0.000000,0.000000,8.000000
3.161148,2.365079,1.317646,1.647389,1.239671,1.591492,1.255173,1.534615,1.554742,1.391188,0.873681,0.107878,-0.620431,-1.532639,-1.616186,-1.112798,-1.285684,-1.298373,-1.152601,-0.980163,-0.754058,-0.813623,-0.811818,-0.946011,-0.867445,-0.391378,-0.557667,-0.430662,-0.389876,-0.564464,-0.314257,-0.251773,-0.204254,-0.188185,-0.213848,-0.225761,-0.078456,0.140429,-0.036204,-0.086866,0.153226,0.184124,0.343929,0.516421,0.533589,0.680242,0.675620,0.813459,0.693087,0.754669,0.895304,0.925734,0.767954,0.671827,0.832186,0.693640,0.558024,0.620520,0.567727,0.354363,0.346765,0.500354,0.528415,0.369704,0.405554,0.322761,0.132028,0.257747,0.114674,-0.186035,0.076774,0.131116,0.075405,-0.121158,-0.186109,0.054787,-0.024196,0.097541,-0.195231,-0.134638,0.012303,-0.028424,0.026855,-0.288226,-0.163590,0.008190,-0.034260,-0.091676,-0.219718,-0.171157,-0.196329,-0.133597,-0.047439,-0.287404,-0.102505,-0.233517,-0.304104,-0.111254,-0.252314,-0.148962,-0.204875,-0.334927,-0.230139,-0.181822,-0.245662,-0.212352,-0.256207,-0.228038,-0.266953,-0.172101,-0.147483,-0.307764,-0.275449,-0.211163,-0.209007,-0.180242,-0.249564,-0.050786,-0.151671,0.246883,0.901897,4.395628,4.246468,1.723039,2.092716,1.975587,2.230311,2.074877,1.897465,1.720953,1.741056,1.258378,0.779644,-0.305305,-0.961634,-2.160842,-2.169944,-1.884191,-2.054199,-2.053859,-1.724188,-1.574270,-1.258062,-1.252895,-1.049285,-1.222017,-1.166038,-1.030554,-0.987159,-0.893671,-0.771891,-0.933054,-0.801145,-0.948749,-0.778642,-0.900241,-0.803293,-0.827149,-0.835874,-0.843923,-0.757001,-0.795707,-0.628864,-0.706001,-0.492264,-0.505726,-0.331306,-0.292068,-0.130521,-0.062619,0.044802,0.054370,0.192864,0.078607,0.354189,0.166542,0.269063,0.129249,0.174402,-0.028315,0.214623,-0.157488,0.246071,-0.502951,0.000000,0.000000,0.000000,8.000000
3.445066,2.975462,2.050348,2.574206,2.378596,2.622449,2.251810,2.197174,2.117532,1.874929,1.400811,0.575612,-0.195862,-1.107863,-1.675234,-1.203951,-1.363122,-1.403306,-1.197985,-0.970320,-0.753056,-0.618601,-0.536034,-0.510733,-0.648410,-0.438102,-0.427417,-0.343281,-0.211860,-0.302232,-0.270953,-0.303385,-0.282245,-0.239507,-0.302554,-0.196982,-0.282068,-0.251284,-0.217658,-0.205870,-0.124150,-0.099508,-0.034982,0.085882,0.118440,0.266325,0.313323,0.463310,0.513886,0.567785,0.660023,0.622021,0.743799,0.778075,0.691914,0.725499,0.642831,0.571199,0.617749,0.539214,0.540111,0.468177,0.323281,0.330730,0.226798,0.241939,0.097016,0.020058,0.010337,-0.087837,-0.019486,-0.146393,-0.108331,-0.072931,-0.191369,-0.105776,-0.162727,-0.198678,-0.189170,-0.299204,-0.285990,-0.365224,-0.329800,-0.369029,-0.468600,-0.438590,-0.473535,-0.469845,-0.485788,-0.578373,-0.529208,-0.609495,-0.602434,-0.596420,-0.652742,-0.588267,-0.650467,-0.639318,-0.581829,-0.676338,-0.614099,-0.669889,-0.636103,-0.585406,-0.636137,-0.627866,-0.644845,-0.673326,-0.611327,-0.672678,-0.539086,-0.658267,-0.569792,-0.595701,-0.533899,-0.519426,-0.432370,-0.446976,-0.024072,0.526677,4.192385,3.695904,1.333591,1.752612,1.559050,1.908857,1.746988,1.799164,1.770107,1.727437,1.491311,0.866981,0.321470,-0.348226,-1.135781,-0.731113,-0.821723,-0.946974,-1.160574,-1.133607,-1.033251,-1.000489,-0.985370,-0.941706,-1.202470,-0.994776,-1.024694,-0.882019,-0.837092,-0.813150,-0.784100,-0.788024,-0.793316,-0.752453,-0.795544,-0.665351,-0.783496,-0.677393,-0.757495,-0.652883,-0.616104,-0.584411,-0.497723,-0.356211,-0.381374,-0.190203,-0.217665,-0.009013,-0.006802,0.124325,0.202191,0.293763,0.278959,0.379831,0.254313,0.419211,0.284454,0.489239,0.234145,0.301465,0.097166,0.283664,-0.293431,0.000000,0.000000,0.000000,0.000000,8.000000
3.492190,2.298592,1.406731,1.837080,1.725713,2.013510,1.735806,1.940320,1.753561,1.726125,1.110353,0.479947,-0.106286,-1.097324,-1.058324,-0.809991,-1.075293,-1.194280,-1.350244,-1.173417,-1.153327,-1.128562,-1.055589,-1.271117,-1.238911,-1.105517,-1.106888,-0.923047,-0.977005,-0.884037,-0.918960,-0.905744,-0.880047,-0.907845,-0.813876,-0.850736,-0.844627,-0.818995,-0.836382,-0.694451,-0.725838,-0.616752,-0.483566,-0.460309,-0.334521,-0.267356,-0.163464,-0.027571,-0.009481,0.169785,0.207364,0.262043,0.307118,0.264158,0.315894,0.316703,0.364085,0.338300,0.154671,0.192764,0.081705,-0.020600,-0.011513,-0.264664,-0.264104,-0.277309,-0.318913,-0.301735,-0.373643,-0.310417,-0.354193,-0.401963,-0.341668,-0.401383,-0.326958,-0.429889,-0.402437,-0.406677,-0.430743,-0.431061,-0.492795,-0.474963,-0.475744,-0.520021,-0.460868,-0.564575,-0.577629,-0.570386,-0.635716,-0.552437,-0.648454,-0.623733,-0.633950,-0.655641,-0.562777,-0.657018,-0.613321,-0.665289,-0.739694,-0.658760,-0.723270,-0.702768,-0.681970,-0.704308,-0.634994,-0.707050,-0.558527,-0.567845,-0.547495,-0.497676,-0.519911,-0.443935,-0.406124,-0.454193,-0.371944,-0.462100,-0.232649,-0.258805,0.092656,0.295968,2.934385,5.141519,1.948669,1.799407,1.904173,1.963189,1.913390,1.785675,1.897993,1.953630,1.447229,0.952907,0.220702,-0.667940,-1.403719,-1.158565,-0.881667,-0.954719,-1.073443,-0.778512,-0.457681,-0.250528,-0.488302,-0.494072,-0.449697,-0.318309,-0.217037,-0.181548,-0.236686,-0.151631,-0.163870,-0.031594,-0.146200,-0.089489,-0.063899,-0.029910,-0.024670,0.030202,0.061008,0.241191,0.110845,0.251674,0.223564,0.320411,0.348265,0.450742,0.636778,0.747975,0.712928,0.829240,0.866925,1.093306,0.976345,1.000136,1.025131,1.185114,1.231634,1.189311,0.953216,1.090151,0.662156,0.926062,0.402253,0.000000,0.000000,0.000000,0.000000,8.000000
2.748722,2.222703,1.571643,2.065974,1.996047,2.312011,2.170348,2.233394,2.297964,2.069424,1.620964,1.263552,1.486053,1.190851,0.730801,1.356494,1.784173,1.371831,0.742196,-0.024793,-0.531141,-0.700099,-0.820377,-0.794611,-0.929920,-1.003050,-0.994937,-1.091824,-1.035985,-1.141798,-1.108574,-1.164055,-1.174664,-1.150145,-1.227933,-1.209123,-1.197619,-1.234602,-1.120426,-1.224257,-1.163012,-1.164740,-1.156112,-1.010148,-1.032293,-0.880170,-0.781105,-0.769791,-0.602234,-0.503007,-0.295801,-0.146684,-0.055458,-0.014552,0.015636,0.092696,0.123957,0.005153,-0.026406,-0.129904,-0.062036,-0.121684,-0.150833,-0.110839,-0.204895,-0.142210,-0.205176,-0.209529,-0.106185,-0.197060,-0.124116,-0.177544,-0.186124,-0.134212,-0.246631,-0.174380,-0.233065,-0.310314,-0.206360,-0.348540,-0.281637,-0.368803,-0.434414,-0.380566,-0.430590,-0.405547,-0.427599,-0.477274,-0.408414,-0.462003,-0.408043,-0.469178,-0.440480,-0.361734,-0.471126,-0.417139,-0.405356,-0.448841,-0.373368,-0.477170,-0.407085,-0.456533,-0.412764,-0.365296,-0.430248,-0.397215,-0.425399,-0.398091,-0.349967,-0.422552,-0.345213,-0.356648,-0.393633,-0.300399,-0.413363,-0.271040,-0.381608,-0.259645,-0.256552,-0.238531,-0.170384,0.083510,0.239813,2.966462,4.248643,1.774991,1.836164,1.688553,1.931696,1.801199,1.929568,1.792372,1.604167,1.011532,0.963491,0.864293,0.494333,1.018313,2.197462,2.074351,1.679841,0.755127,0.120368,-0.286702,-0.436745,-0.443630,-0.566260,-0.630546,-0.613885,-0.757460,-0.662395,-0.805731,-0.754387,-0.785618,-0.768279,-0.781593,-0.760951,-0.797472,-0.770116,-0.952226,-0.772021,-0.856329,-0.718335,-0.751244,-0.723885,-0.611646,-0.420523,-0.317867,-0.139400,-0.284529,-0.168809,-0.121584,0.090163,0.016362,-0.003493,-0.025352,0.131887,0.091415,0.157190,-0.104051,0.147318,0.074179,0.314194,-0.000204,0.288744,-0.202487,0.000000,7.000000
2.745854,2.062108,0.989653,1.364766,1.208441,1.410497,1.270082,1.385448,1.106023,0.734654,0.398567,0.518458,0.079604,0.293929,1.388009,1.669161,1.254053,0.597167,-0.217456,-0.546703,-0.845844,-0.789591,-0.926245,-0.987349,-0.987403,-1.085382,-1.067332,-1.107349,-1.163170,-1.112894,-1.157466,-1.126815,-1.136537,-1.149701,-1.126808,-1.266383,-1.197274,-1.168576,-1.153304,-1.068808,-1.133093,-1.008228,-0.866213,-0.735367,-0.581055,-0.626843,-0.632081,-0.527500,-0.399614,-0.340666,-0.436700,-0.427732,-0.341839,-0.304024,-0.276424,-0.439392,-0.380048,-0.288608,-0.214396,-0.269345,-0.310922,-0.314431,-0.374581,-0.345871,-0.312210,-0.325233,-0.243550,-0.251000,-0.278205,-0.230622,-0.388619,-0.420031,-0.482245,-0.409158,-0.301318,-0.462094,-0.462869,-0.472300,-0.471379,-0.512540,-0.513685,-0.396846,-0.477322,-0.493778,-0.493623,-0.614178,-0.419470,-0.366452,-0.416295,-0.599807,-0.490400,-0.351262,-0.379779,-0.377235,-0.447262,-0.515833,-0.359717,-0.467646,-0.470817,-0.197887,-0.221000,-0.260618,-0.304343,-0.197263,-0.269888,-0.289736,-0.160770,-0.284006,-0.246286,-0.168618,-0.130119,-0.035216,-0.059073,-0.065227,-0.217573,-0.160613,0.117167,0.223270,0.147690,0.289030,0.532548,3.236944,4.463978,1.916936,2.015680,1.878979,1.703955,1.347502,2.168632,2.922240,2.948322,2.704827,2.783958,2.790515,2.587057,1.579537,0.706775,0.473288,0.397993,-0.083228,-0.219823,-0.313884,-0.437834,-0.283187,-0.451346,-0.768916,-0.366786,-0.698245,-0.631845,-0.602561,-0.795813,-0.906909,-0.919668,-0.634631,-0.773366,-1.055262,-0.769341,-0.701412,-0.641836,-0.584653,-0.559089,-0.593096,-0.245902,-0.076917,-0.057572,-0.061346,0.361509,0.125508,0.288753,0.260384,0.443518,0.525902,0.366313,0.254319,0.373928,0.406261,0.483805,0.171723,0.343668,0.204530,0.470039,0.214843,0.457925,-0.025377,0.000000,0.000000,0.000000,7.000000
2.742136,2.654107,1.405083,1.951133,1.449998,1.379519,1.520504,2.545136,2.568698,2.506071,2.366550,2.526742,2.360222,1.800528,0.810435,0.526513,0.430161,0.164718,-0.157615,-0.128122,-0.328177,-0.215533,-0.222777,-0.571104,-0.369637,-0.375425,-0.592832,-0.381244,-0.605598,-0.654741,-0.781603,-0.551661,-0.507506,-0.804438,-0.713241,-0.525356,-0.527669,-0.449184,-0.416292,-0.461013,-0.278170,-0.029733,0.026987,-0.037861,0.260826,0.283774,0.203511,0.344567,0.325224,0.552607,0.421002,0.310200,0.331198,0.404822,0.479705,0.314546,0.272234,0.309154,0.346340,0.389360,0.311900,0.311311,0.239125,0.217912,0.298045,0.229677,0.200542,0.164544,0.183591,0.108927,0.018372,0.031777,0.137545,0.057974,-0.024594,-0.011753,0.000520,0.012327,-0.103047,0.015240,-0.048182,-0.067233,-0.015448,-0.087210,-0.010155,-0.084657,-0.092006,-0.063908,-0.196350,-0.139857,-0.122576,-0.077566,-0.097946,-0.149064,-0.104858,-0.147039,-0.199831,-0.175391,-0.170124,-0.139030,-0.208498,-0.210510,-0.217180,-0.255914,-0.214729,-0.235591,-0.238819,-0.197522,-0.273912,-0.193918,-0.258603,-0.228330,-0.241658,-0.264408,-0.262897,-0.156744,-0.224926,0.077570,0.324961,3.011291,2.651892,1.322335,2.683513,2.844679,2.867779,2.315983,2.001410,1.622046,1.303569,0.771790,0.406285,-0.132153,-0.290976,-0.577065,-0.564621,-0.797965,-0.785810,-0.902486,-0.953081,-1.009336,-1.038546,-1.175471,-1.133885,-1.312115,-1.253451,-1.388365,-1.362527,-1.464704,-1.476650,-1.533399,-1.514128,-1.576712,-1.466356,-1.562145,-1.400538,-1.438593,-1.280537,-1.215014,-1.068337,-0.912743,-0.675285,-0.635573,-0.425070,-0.437659,-0.291040,-0.364971,-0.320882,-0.438128,-0.409915,-0.494644,-0.460633,-0.547510,-0.461994,-0.627118,-0.476428,-0.644300,-0.515218,-0.629581,-0.562024,-0.684559,-0.544025,-0.783673,-0.556174,-0.919379,-0.447580,-1.189164,0.000000,7.000000
2.604555,3.759160,2.789597,2.718267,2.177521,1.817290,1.261938,0.817605,0.406871,0.232427,0.048460,-0.006727,-0.205931,-0.164133,-0.340620,-0.336906,-0.404304,-0.499535,-0.538764,-0.613067,-0.696346,-0.697339,-0.804591,-0.793013,-0.903807,-0.905988,-0.938361,-0.967092,-0.924142,-0.924711,-0.901446,-0.797821,-0.786781,-0.605199,-0.542585,-0.353602,-0.131568,0.002963,0.135974,0.252933,0.301845,0.370053,0.315824,0.305471,0.225311,0.222270,0.181138,0.151172,0.168309,0.105839,0.100288,0.116299,0.047314,0.115432,0.039830,0.033661,0.045121,-0.017442,-0.021208,-0.086310,-0.070811,-0.066967,-0.181637,-0.101785,-0.228999,-0.176548,-0.210272,-0.218126,-0.186277,-0.238070,-0.261834,-0.266382,-0.299682,-0.235035,-0.322280,-0.297087,-0.270117,-0.332852,-0.253056,-0.343554,-0.266011,-0.296559,-0.356595,-0.284003,-0.325029,-0.314520,-0.338687,-0.315286,-0.290153,-0.319770,-0.243409,-0.257709,-0.316719,-0.256348,-0.291132,-0.261368,-0.242304,-0.289094,-0.197094,-0.297190,-0.219594,-0.221850,-0.253927,-0.164108,-0.215629,-0.194912,-0.164392,-0.220236,-0.115973,-0.183081,-0.125882,-0.210848,-0.156346,-0.099020,-0.104513,-0.111420,-0.004543,-0.127656,1.632026,4.767593,3.707655,3.445752,3.769314,3.534848,2.930617,2.428327,1.711236,1.082607,0.621249,0.159391,-0.033768,-0.194041,-0.371346,-0.425194,-0.554131,-0.579115,-0.646188,-0.748757,-0.746668,-0.872857,-0.876789,-0.958631,-1.041670,-1.016566,-1.130031,-1.141374,-1.144058,-1.214332,-1.136003,-1.177528,-1.117114,-1.089510,-1.020794,-0.874051,-0.779231,-0.619537,-0.490975,-0.455221,-0.220586,-0.183980,0.003343,0.006337,0.025688,0.132949,0.131198,0.094473,0.119929,0.024671,0.121951,-0.016065,0.090284,0.013660,0.035254,0.015383,0.044444,-0.037729,0.060224,-0.121543,0.116748,-0.185951,0.092002,-0.444940,0.000000,0.000000,0.000000,0.000000,0.000000,7.000000
2.615214,3.109059,2.983478,3.254857,2.638852,2.238555,1.611055,0.994194,0.489485,0.083608,-0.252786,-0.336842,-0.556362,-0.611168,-0.721159,-0.784447,-0.809481,-0.916257,-0.939316,-1.001972,-1.078933,-1.079138,-1.209432,-1.186250,-1.248411,-1.319881,-1.287623,-1.362975,-1.327237,-1.317055,-1.319185,-1.254705,-1.237508,-1.105900,-1.003338,-0.893838,-0.725040,-0.709639,-0.529408,-0.430881,-0.325321,-0.219348,-0.264485,-0.157000,-0.121650,-0.168162,-0.137374,-0.216532,-0.166106,-0.221682,-0.224166,-0.190896,-0.255149,-0.217641,-0.229615,-0.262999,-0.228230,-0.309879,-0.236972,-0.288015,-0.331425,-0.353954,-0.441324,-0.395010,-0.384643,-0.374572,-0.389383,-0.426590,-0.332951,-0.367111,-0.427752,-0.400058,-0.437963,-0.313005,-0.422083,-0.461290,-0.368507,-0.434574,-0.467445,-0.433959,-0.308050,-0.267034,-0.386719,-0.317298,-0.303333,-0.335681,-0.383739,-0.463812,-0.286752,-0.257255,-0.291904,-0.237603,-0.253072,-0.241855,-0.346774,-0.310589,-0.219026,-0.210792,-0.168107,-0.259395,-0.223423,-0.171609,-0.200755,-0.125268,-0.167892,-0.110958,-0.058214,-0.118202,-0.178955,-0.202851,-0.143478,0.012974,-0.028743,0.041230,-0.096308,-0.107645,-0.273443,0.163273,1.086863,1.880730,2.221512,4.257017,5.118168,3.348569,2.974015,2.166233,1.694314,0.916467,0.695122,0.438011,0.353944,0.076476,0.018951,0.022489,-0.159365,-0.257781,-0.243566,-0.343856,-0.323911,-0.557245,-0.480126,-0.506186,-0.594503,-0.686861,-0.672931,-0.709648,-0.730817,-0.693281,-0.620639,-0.760085,-0.439471,-0.423035,-0.341165,-0.278622,-0.169215,-0.036748,0.048416,0.064934,0.336738,0.380783,0.415646,0.562425,0.577322,0.471169,0.519219,0.403934,0.466686,0.419165,0.566984,0.459349,0.512370,0.561177,0.548094,0.399000,0.336804,0.436647,0.537462,0.430041,0.465038,0.316737,0.478663,0.308419,0.405367,0.113276,0.000000,0.000000,0.000000,7.000000
4.614380,5.204970,3.373239,3.084738,1.928133,1.332490,0.524768,0.497444,0.100548,0.019507,-0.368815,-0.158158,-0.481262,-0.566180,-0.636514,-0.675223,-0.730976,-0.899471,-1.007259,-0.869508,-1.070093,-1.124593,-1.203682,-1.166668,-1.258741,-1.205142,-1.099932,-1.250562,-1.002672,-0.781338,-0.813060,-0.630172,-0.586945,-0.349770,-0.260132,-0.210099,0.035719,0.251253,0.192607,0.424236,0.468988,0.357933,0.367092,0.286334,0.278637,0.286917,0.383403,0.388672,0.303609,0.479015,0.403600,0.319595,0.110201,0.273258,0.375045,0.331895,0.277635,0.199826,0.232306,0.250933,0.099521,0.117918,0.179864,0.180481,0.058195,0.085165,0.102161,0.134078,0.074060,-0.040106,0.163475,0.186208,0.093052,0.119990,0.241423,0.187629,0.167619,0.139478,0.110759,0.092706,0.083156,0.295943,0.257649,0.056500,0.280020,0.242827,0.341292,0.222043,0.131557,0.023521,0.216404,0.315799,0.225638,0.216549,0.175866,0.078061,0.181933,0.107723,0.204610,0.160769,0.093618,0.150105,0.075519,0.126325,0.226637,0.204264,0.197525,-0.022332,0.163612,0.152093,0.135953,0.161250,0.076331,0.027745,-0.183893,0.347696,1.856603,2.509123,2.627470,2.559056,2.578478,1.982586,1.420972,1.020572,0.557806,-0.019828,-0.235133,-0.544835,-0.507984,-0.726039,-0.827252,-0.849379,-0.945826,-0.990398,-1.018539,-1.180176,-1.111809,-1.257791,-1.186320,-1.313904,-1.339810,-1.370715,-1.502953,-1.469786,-1.480990,-1.598206,-1.450529,-1.533924,-1.363862,-1.393770,-1.243517,-1.126065,-0.958702,-0.712383,-0.496222,-0.329537,-0.133258,-0.177106,0.076197,0.054386,0.201251,0.106579,0.040107,0.026537,0.088040,-0.026016,0.096941,-0.109631,0.078782,-0.141955,0.034613,-0.092904,0.017567,-0.116781,-0.006920,-0.192686,0.128699,-0.336981,0.267314,-0.705201,0.000000,0.000000,0.000000,0.000000,0.000000,0.000000,0.000000,1.000000
2.534510,2.872302,2.017350,1.277061,0.567366,-0.097026,-0.585541,-0.732905,-0.987231,-0.915235,-1.118708,-1.153713,-1.162217,-1.302242,-1.275991,-1.357104,-1.406705,-1.377389,-1.475947,-1.434078,-1.625145,-1.632835,-1.620591,-1.728100,-1.714335,-1.751782,-1.707950,-1.655613,-1.663892,-1.512116,-1.517568,-1.433769,-1.220572,-1.142476,-0.821606,-0.725871,-0.614423,-0.426604,-0.319835,-0.060335,0.010148,0.036719,0.087256,0.070116,0.238837,0.131681,0.193744,0.203993,0.126242,0.218684,0.167808,0.195228,0.157188,0.080587,0.222742,0.132493,0.124304,0.152174,0.101402,0.102757,0.004289,0.062561,0.012649,-0.033762,0.093341,-0.069675,-0.023148,-0.055234,-0.095208,-0.056409,-0.123781,-0.093256,-0.126881,-0.146416,-0.088578,-0.241184,-0.231536,-0.265903,-0.220061,-0.167015,-0.272585,-0.231062,-0.206672,-0.207561,-0.108891,-0.192681,-0.106780,-0.158857,-0.199338,-0.124588,-0.285917,-0.128837,-0.045022,-0.157055,-0.026216,-0.035106,0.043745,0.044050,-0.048289,-0.134916,-0.193219,0.003518,0.019514,0.113101,0.237675,0.030724,0.026955,0.047659,-0.055996,0.015754,0.057129,0.177585,0.097430,0.026934,0.156048,0.076322,0.089375,-0.110767,-0.454928,0.243472,1.538055,2.684049,3.286212,3.749840,3.933377,3.305416,2.681756,1.582653,1.012852,0.534500,-0.036014,-0.220492,-0.316442,-0.358816,-0.418087,-0.638175,-0.343999,-0.387310,-0.634736,-0.774664,-0.888153,-0.783320,-0.628188,-0.849959,-0.904954,-0.810918,-0.739815,-1.061660,-0.859891,-0.677811,-0.982150,-0.785809,-0.688156,-0.437812,-0.312348,-0.393286,-0.131036,0.189713,0.394404,0.314749,0.593561,0.942144,0.843133,1.058544,1.177031,0.954944,0.980929,0.808286,1.112150,1.048757,0.924656,1.094471,0.886434,0.999138,1.003870,0.621700,0.951842,0.948696,1.211038,1.023037,0.876223,0.872194,0.723515,0.689748,0.983321,0.625322,0.000000,1.000000
2.559434,3.521805,2.415076,1.642037,0.605571,0.349068,-0.438932,-0.631236,-0.817142,-0.825692,-0.891917,-1.096031,-0.978268,-0.778959,-1.113754,-1.225398,-1.413119,-1.350953,-1.167412,-1.272261,-1.462680,-1.358052,-1.257529,-1.471843,-1.555464,-1.136042,-1.464676,-1.387087,-1.231152,-1.046643,-0.798729,-0.889050,-0.736802,-0.379764,-0.098299,-0.110775,-0.015183,0.460401,0.455454,0.513981,0.805583,0.582011,0.570350,0.418861,0.554248,0.742567,0.474513,0.652538,0.556453,0.469060,0.693352,0.250588,0.389932,0.550602,0.679805,0.762501,0.437015,0.483987,0.346935,0.218254,0.477640,0.356656,0.523432,0.645725,0.413242,0.283699,0.266436,0.345755,0.347878,0.174392,0.374732,0.592164,0.434869,0.318697,0.303694,0.310741,0.444714,0.252419,0.413150,0.317463,0.250542,0.423067,0.468746,0.273096,0.205156,0.454224,0.458215,0.461867,0.315948,0.204158,0.449711,0.375639,0.324507,0.457163,0.443660,0.404055,0.291916,0.364578,0.397239,0.357376,0.399299,0.264467,0.328297,0.272770,0.250644,0.316401,0.323178,0.350233,0.290049,0.278196,0.338469,0.039845,-0.117719,0.963840,2.666773,3.287824,3.167489,3.406056,2.913810,2.070896,1.689726,0.760083,0.203822,-0.252313,-0.546507,-0.541978,-0.706864,-0.707533,-0.781499,-0.906073,-0.920888,-1.109974,-1.042444,-1.207256,-1.250175,-1.315836,-1.436185,-1.417459,-1.536895,-1.658881,-1.621070,-1.747967,-1.689043,-1.671829,-1.597946,-1.480893,-1.414541,-1.222355,-1.050328,-0.792851,-0.413657,-0.306728,-0.082614,-0.018174,0.157452,0.275034,0.228924,0.207580,0.150304,0.104113,0.180090,-0.003760,0.123155,0.002026,0.019612,-0.033334,-0.022332,-0.070622,-0.028426,-0.157272,0.053929,-0.139625,0.071425,-0.143898,-0.011233,-0.217909,-0.025222,-0.475191,0.000000,0.000000,0.000000,0.000000,0.000000,0.000000,0.000000,0.000000,0.000000,1.000000
2.623921,4.050632,3.575270,2.889030,2.279115,1.689931,0.785644,0.481604,-0.048380,-0.011889,-0.182229,-0.219524,-0.253654,-0.380803,-0.420176,-0.546354,-0.605794,-0.609115,-0.794852,-0.754772,-0.934861,-0.923961,-0.985645,-1.137936,-1.147650,-1.193395,-1.258677,-1.164152,-1.174761,-1.021680,-0.972477,-0.826632,-0.632085,-0.455357,-0.072427,0.139269,0.292550,0.456389,0.533209,0.738146,0.736545,0.691644,0.680473,0.571291,0.663734,0.548591,0.537401,0.566511,0.471964,0.487166,0.452824,0.426654,0.456041,0.360423,0.445296,0.449066,0.424829,0.492524,0.356297,0.417425,0.313310,0.310016,0.265398,0.160592,0.197243,0.070275,0.084405,0.146499,0.046191,0.075720,0.028232,0.043568,0.002090,-0.060883,0.050285,-0.053322,-0.043769,-0.009290,-0.096043,-0.017368,-0.112205,-0.115995,-0.046292,-0.140683,-0.023376,-0.101219,-0.062450,-0.064776,-0.121229,-0.048834,-0.091407,-0.122355,-0.046914,-0.193408,-0.060082,-0.131143,-0.125249,-0.079358,-0.179469,-0.038087,-0.132471,-0.146266,-0.088735,-0.189519,-0.041963,-0.144528,-0.115145,-0.124488,-0.155291,-0.035223,-0.189413,-0.277538,-0.489404,0.331812,1.937398,2.652300,3.075331,3.712933,3.274573,2.544668,1.640775,0.782317,0.215892,-0.396519,-0.553513,-0.774133,-0.866601,-0.913670,-1.032693,-1.065921,-1.152033,-1.173690,-1.188239,-1.371513,-1.300606,-1.402822,-1.429460,-1.484045,-1.558649,-1.597134,-1.682689,-1.661433,-1.553777,-1.636660,-1.435946,-1.483541,-1.330693,-1.267307,-1.116622,-0.875599,-0.576229,-0.463617,-0.271541,-0.173649,0.099924,0.128995,0.306673,0.194628,0.177185,0.285113,0.242441,0.254082,0.288978,0.190743,0.239004,0.209011,0.246076,0.218616,0.152547,0.210992,0.232293,0.165248,0.312146,0.130650,0.312911,0.090699,0.164243,0.078026,0.231782,-0.061263,0.000000,0.000000,0.000000,0.000000,0.000000,0.000000,0.000000,1.000000
