4.316870,4.924175,0.041998,-0.628007,-0.447087,-0.076360,-0.459592,-0.318501,-0.593000,-0.485459,-0.642536,-0.543482,-0.675373,-0.549974,-0.680762,-0.585892,-0.659843,-0.531840,-0.606856,-0.472984,-0.538721,-0.360431,-0.429005,-0.224014,-0.239364,-0.006538,0.049367,0.329083,0.402739,0.638601,0.729515,0.943443,0.969770,1.125640,1.103866,1.100434,0.984090,0.868714,0.638559,0.448847,0.214066,0.040220,-0.065367,-0.161242,-0.171610,-0.249287,-0.194987,-0.261313,-0.238364,-0.267984,-0.193998,-0.210573,-0.150534,-0.187352,-0.114181,-0.154317,-0.105952,-0.122658,-0.106988,-0.129767,-0.113088,-0.146902,-0.171158,-0.169028,-0.199671,-0.196204,-0.246333,-0.242592,-0.262425,-0.248730,-0.310985,-0.305340,-0.344158,-0.338755,-0.377851,-0.342193,-0.385873,-0.355940,-0.385819,-0.388387,-0.348832,-0.300337,-0.175718,-0.146012,-0.133737,-0.038248,-0.001342,0.004061,-0.000164,-0.163655,-0.135305,-0.155074,-0.200956,-0.376919,-0.375561,-0.514238,-0.483321,-0.602929,-0.491584,-0.612431,-0.511444,-0.612267,-0.462083,-0.776347,-1.023311,-0.790633,1.458210,4.777606,6.371402,3.086893,-0.684990,-0.666936,-0.293795,-0.410935,-0.459227,-0.588239,-0.696812,-0.685791,-0.762355,-0.693553,-0.719075,-0.685389,-0.720250,-0.664697,-0.656936,-0.610396,-0.579884,-0.463637,-0.429430,-0.315819,-0.171835,-0.033813,0.123975,0.318023,0.528323,0.639680,0.796688,0.877494,1.021138,0.977117,0.992513,0.796821,0.737825,0.404023,0.348572,-0.000493,0.010385,-0.235712,-0.142238,-0.353542,-0.168321,-0.352697,-0.136363,-0.382883,-0.086591,-0.380923,-0.022533,-0.455656,0.157559,-0.780584,0.000000,0.000000,0.000000,0.000000,0.000000,0.000000,0.000000,0.000000,0.000000,0.000000,0.000000,0.000000,0.000000,0.000000,0.000000,0.000000,0.000000,0.000000,0.000000,0.000000,0.000000,0.000000,0.000000,0.000000,0.000000,0.000000,0.000000,1.000000
4.614127,4.169744,-0.872863,-0.488598,-0.424661,-0.246054,-0.547741,-0.462371,-0.776749,-0.591305,-0.830904,-0.616634,-0.774848,-0.614686,-0.769415,-0.600594,-0.698618,-0.546680,-0.616254,-0.396940,-0.453282,-0.245368,-0.183076,0.051732,0.129075,0.420306,0.556860,0.763489,0.840876,1.016049,1.078384,1.126894,1.049705,0.941813,0.779765,0.532729,0.363372,0.110736,-0.002055,-0.132493,-0.172313,-0.248208,-0.212468,-0.233530,-0.196025,-0.243008,-0.173137,-0.200869,-0.162954,-0.189619,-0.134072,-0.160696,-0.136842,-0.130161,-0.132761,-0.137729,-0.152946,-0.157370,-0.158339,-0.126385,-0.184764,-0.182271,-0.232329,-0.245548,-0.289161,-0.280543,-0.330721,-0.299846,-0.357983,-0.356561,-0.417207,-0.391255,-0.415627,-0.402641,-0.393301,-0.341401,-0.379014,-0.362792,-0.264912,-0.155628,-0.149709,-0.111143,-0.053066,-0.070136,-0.027357,-0.185176,-0.205505,-0.190440,-0.175291,-0.361111,-0.337847,-0.509808,-0.521542,-0.572303,-0.484655,-0.632446,-0.490582,-0.585505,-0.500302,-0.645272,-0.901159,-0.862334,0.698857,3.792208,6.329180,4.382505,-0.038723,-0.929316,-0.262417,-0.368788,-0.454810,-0.536050,-0.637873,-0.641797,-0.666783,-0.665315,-0.635857,-0.644319,-0.665983,-0.632720,-0.641786,-0.566219,-0.560761,-0.495403,-0.459230,-0.369822,-0.239501,-0.117135,0.048860,0.178216,0.365725,0.513078,0.706796,0.771024,0.954903,0.970631,1.082161,0.963503,1.016226,0.755054,0.682421,0.360477,0.331848,0.000579,0.073180,-0.170812,-0.015190,-0.272191,-0.053562,-0.305091,-0.037528,-0.363744,0.030908,-0.404330,0.244013,-0.737133,0.000000,0.000000,0.000000,0.000000,0.000000,0.000000,0.000000,0.000000,0.000000,0.000000,0.000000,0.000000,0.000000,0.000000,0.000000,0.000000,0.000000,0.000000,0.000000,0.000000,0.000000,0.000000,0.000000,0.000000,0.000000,0.000000,0.000000,0.000000,0.000000,0.000000,0.000000,1.000000
4.155534,4.716786,-0.385295,-0.781455,-0.498311,-0.298044,-0.634542,-0.493462,-0.788413,-0.617752,-0.802713,-0.653073,-0.765486,-0.637319,-0.788390,-0.633793,-0.760549,-0.577169,-0.676235,-0.513970,-0.575282,-0.400343,-0.365542,-0.159568,-0.086395,0.124434,0.220335,0.445127,0.556638,0.701315,0.797834,0.902431,0.932762,0.910174,0.875123,0.732599,0.560675,0.355301,0.210901,0.011430,-0.066999,-0.156520,-0.172080,-0.239661,-0.237228,-0.251577,-0.250454,-0.267777,-0.251107,-0.220598,-0.202532,-0.180055,-0.141991,-0.154179,-0.117094,-0.111797,-0.095172,-0.096553,-0.103065,-0.100244,-0.097039,-0.120654,-0.134104,-0.163197,-0.200723,-0.191302,-0.250631,-0.258380,-0.316772,-0.280447,-0.354568,-0.317283,-0.363740,-0.331899,-0.391853,-0.348706,-0.383802,-0.344840,-0.357473,-0.354835,-0.287183,-0.182874,-0.119701,-0.111863,-0.016745,-0.032984,0.055261,-0.073847,-0.148807,-0.165239,-0.104454,-0.286793,-0.329375,-0.462420,-0.424405,-0.556970,-0.490218,-0.580339,-0.494192,-0.583615,-0.483481,-0.621769,-0.878705,-0.869536,0.937760,4.342419,6.495419,3.816621,-0.513194,-0.733078,-0.225075,-0.404252,-0.473070,-0.582749,-0.616269,-0.646199,-0.676384,-0.650276,-0.656783,-0.674206,-0.673201,-0.625257,-0.620121,-0.592465,-0.528293,-0.492013,-0.381944,-0.350168,-0.207624,-0.083406,0.127536,0.224821,0.485945,0.591873,0.820947,0.878082,1.111323,1.063070,1.234572,1.053653,1.128699,0.808424,0.763317,0.405047,0.372721,0.031919,0.082444,-0.181248,-0.074512,-0.288530,-0.119356,-0.348247,-0.098508,-0.372224,-0.029473,-0.404944,0.174163,-0.714816,0.000000,0.000000,0.000000,0.000000,0.000000,0.000000,0.000000,0.000000,0.000000,0.000000,0.000000,0.000000,0.000000,0.000000,0.000000,0.000000,0.000000,0.000000,0.000000,0.000000,0.000000,0.000000,0.000000,0.000000,0.000000,0.000000,0.000000,0.000000,0.000000,1.000000
4.134575,5.015139,-0.272879,-0.711713,-0.421093,-0.277470,-0.591616,-0.488985,-0.718898,-0.575933,-0.763840,-0.604086,-0.732038,-0.628630,-0.747854,-0.598337,-0.685114,-0.575548,-0.600322,-0.484649,-0.463718,-0.348282,-0.305007,-0.109841,0.015440,0.186938,0.350656,0.542131,0.678879,0.820205,0.960420,1.015242,1.084896,1.029630,0.990242,0.820890,0.644138,0.441137,0.260552,0.085899,-0.038608,-0.116574,-0.205949,-0.214389,-0.267068,-0.254289,-0.277812,-0.240849,-0.266303,-0.193237,-0.215879,-0.152728,-0.216343,-0.118559,-0.168392,-0.074965,-0.169224,-0.090123,-0.158863,-0.106030,-0.177666,-0.138718,-0.230504,-0.156132,-0.267006,-0.205859,-0.289609,-0.260875,-0.332488,-0.275621,-0.370425,-0.336514,-0.365021,-0.383169,-0.385929,-0.385537,-0.398420,-0.400985,-0.365764,-0.334274,-0.229578,-0.157647,-0.115822,-0.069221,-0.044576,-0.012995,-0.055292,-0.178205,-0.196391,-0.144004,-0.265348,-0.340914,-0.453071,-0.500239,-0.576774,-0.550147,-0.586985,-0.539399,-0.605681,-0.508321,-0.670222,-0.918392,-0.901901,0.837658,4.075807,6.277961,3.976806,-0.153281,-0.787275,-0.214402,-0.424799,-0.440185,-0.589875,-0.584810,-0.680841,-0.635174,-0.686969,-0.674020,-0.685165,-0.656876,-0.657155,-0.628656,-0.594321,-0.576312,-0.521714,-0.456510,-0.377127,-0.270382,-0.163549,-0.015448,0.118952,0.301952,0.483247,0.648800,0.791599,0.892384,0.983199,1.076392,1.058823,1.054686,0.901716,0.759128,0.543412,0.374497,0.091974,0.030702,-0.165129,-0.097010,-0.302114,-0.151645,-0.399472,-0.158971,-0.420417,-0.102957,-0.486856,0.108334,-0.771942,0.000000,0.000000,0.000000,0.000000,0.000000,0.000000,0.000000,0.000000,0.000000,0.000000,0.000000,0.000000,0.000000,0.000000,0.000000,0.000000,0.000000,0.000000,0.000000,0.000000,0.000000,0.000000,0.000000,0.000000,0.000000,0.000000,0.000000,0.000000,0.000000,0.000000,1.000000
4.101295,4.854124,-0.176948,-0.646237,-0.406275,-0.277274,-0.565894,-0.477564,-0.688707,-0.588745,-0.731228,-0.605297,-0.759238,-0.616568,-0.736341,-0.595375,-0.705314,-0.541284,-0.647413,-0.479897,-0.530215,-0.344821,-0.349620,-0.140841,-0.102986,0.132630,0.203219,0.486032,0.549767,0.793074,0.800522,0.981998,0.987603,1.072902,0.978845,0.940940,0.703425,0.593318,0.333288,0.152984,-0.026180,-0.108464,-0.171009,-0.233212,-0.247046,-0.306184,-0.292477,-0.292478,-0.287536,-0.281546,-0.232282,-0.217331,-0.197918,-0.199369,-0.165253,-0.164665,-0.148093,-0.142654,-0.163777,-0.128312,-0.154624,-0.133471,-0.208293,-0.159421,-0.242667,-0.210594,-0.291142,-0.237993,-0.336055,-0.278009,-0.374406,-0.277958,-0.403802,-0.331189,-0.410450,-0.339339,-0.404887,-0.321648,-0.420697,-0.333105,-0.367888,-0.211145,-0.192837,-0.109892,-0.095819,-0.047027,-0.051691,-0.013007,-0.107113,-0.187256,-0.154152,-0.137326,-0.273597,-0.349012,-0.423420,-0.462820,-0.558213,-0.565706,-0.589632,-0.535786,-0.565018,-0.522604,-0.548952,-0.525858,-0.907161,-0.965758,-0.235561,2.142564,4.888564,6.175677,3.327868,-0.226705,-0.808070,-0.357634,-0.284514,-0.440675,-0.483330,-0.554865,-0.654762,-0.635424,-0.682638,-0.615118,-0.714783,-0.644641,-0.700937,-0.621856,-0.668118,-0.560730,-0.606653,-0.531406,-0.535827,-0.454283,-0.409846,-0.296379,-0.205301,-0.077341,0.047120,0.216985,0.317345,0.482618,0.617374,0.737327,0.856771,0.978955,1.020138,1.055320,1.021060,0.969030,0.789949,0.665212,0.427191,0.323340,0.061333,0.093109,-0.161721,-0.046039,-0.302683,-0.064514,-0.480410,0.081680,-0.841422,0.000000,0.000000,0.000000,0.000000,0.000000,0.000000,0.000000,0.000000,0.000000,0.000000,0.000000,0.000000,0.000000,0.000000,0.000000,0.000000,0.000000,0.000000,0.000000,0.000000,0.000000,0.000000,0.000000,0.000000,0.000000,0.000000,1.000000
4.449703,4.853136,-0.154817,-0.681673,-0.607417,-0.138749,-0.559117,-0.404981,-0.652509,-0.606928,-0.741229,-0.655842,-0.713789,-0.685198,-0.748713,-0.678580,-0.722446,-0.648381,-0.661498,-0.577830,-0.629536,-0.509556,-0.548123,-0.385975,-0.383426,-0.176728,-0.149059,0.081991,0.163254,0.376920,0.441909,0.695614,0.724966,0.947918,0.988726,1.139682,1.084609,1.153810,1.013046,0.931921,0.696822,0.553240,0.325086,0.166122,0.043916,-0.054326,-0.142146,-0.178531,-0.216186,-0.282305,-0.237680,-0.284373,-0.267930,-0.251931,-0.195150,-0.239001,-0.170493,-0.190241,-0.119380,-0.142519,-0.107761,-0.128793,-0.098643,-0.127692,-0.094110,-0.135101,-0.139796,-0.176127,-0.154532,-0.166799,-0.205457,-0.211808,-0.251942,-0.243129,-0.296292,-0.278776,-0.319858,-0.310509,-0.369950,-0.360072,-0.400458,-0.374639,-0.408925,-0.398594,-0.409090,-0.376281,-0.400428,-0.401406,-0.387822,-0.311400,-0.198217,-0.179602,-0.120560,-0.066233,-0.009719,-0.022694,-0.058709,-0.261949,-0.151290,-0.239457,-0.305456,-0.427301,-0.444354,-0.566274,-0.496632,-0.642973,-0.557724,-0.604788,-0.494546,-0.593131,-0.473941,-0.803266,-0.966065,-0.314261,2.220437,5.184645,6.164611,2.821740,-0.462993,-0.826176,-0.263493,-0.402094,-0.469212,-0.541391,-0.640890,-0.597946,-0.664764,-0.628896,-0.665329,-0.642749,-0.657240,-0.628665,-0.636639,-0.610981,-0.575326,-0.549626,-0.485191,-0.455216,-0.379377,-0.324946,-0.178757,-0.094181,0.086538,0.183942,0.421517,0.476851,0.745901,0.777928,0.991507,0.919612,1.137905,0.993841,1.082361,0.786709,0.772550,0.389074,0.404996,0.066391,0.164033,-0.137659,0.005005,-0.254464,-0.023560,-0.347523,-0.014950,-0.418788,0.162000,-0.773841,0.000000,0.000000,0.000000,0.000000,0.000000,0.000000,0.000000,0.000000,0.000000,0.000000,0.000000,0.000000,0.000000,0.000000,0.000000,0.000000,0.000000,0.000000,0.000000,1.000000
4.286243,4.175391,-0.495150,-0.766433,-0.563178,-0.276593,-0.678146,-0.471690,-0.822766,-0.578798,-0.821797,-0.632535,-0.809293,-0.658290,-0.794490,-0.653591,-0.764863,-0.645454,-0.701498,-0.587464,-0.609554,-0.493762,-0.499677,-0.370677,-0.300770,-0.140041,-0.029342,0.138487,0.312357,0.445887,0.638618,0.765460,0.902050,0.926253,1.046359,1.026906,1.005848,0.842261,0.694999,0.449369,0.297996,0.120387,0.024788,-0.078434,-0.163573,-0.187995,-0.225350,-0.241780,-0.280759,-0.231987,-0.258238,-0.222803,-0.250462,-0.188172,-0.203860,-0.136261,-0.157436,-0.092181,-0.096862,-0.067925,-0.131290,-0.065563,-0.076690,-0.083759,-0.112693,-0.098618,-0.129547,-0.148812,-0.155455,-0.177953,-0.193269,-0.259701,-0.247440,-0.306893,-0.307080,-0.359157,-0.312765,-0.401631,-0.345644,-0.404540,-0.323437,-0.402484,-0.333502,-0.409891,-0.294513,-0.214946,-0.105672,-0.119582,0.013287,-0.035511,0.034061,-0.103566,-0.131770,-0.140684,-0.120401,-0.287615,-0.347758,-0.439410,-0.497286,-0.555749,-0.536509,-0.578454,-0.544765,-0.567699,-0.538689,-0.653403,-1.015141,-0.691834,1.509696,5.075629,6.535469,3.091271,-0.719412,-0.578182,-0.225026,-0.417524,-0.453018,-0.596863,-0.605682,-0.675556,-0.630487,-0.675825,-0.605753,-0.676614,-0.586935,-0.656389,-0.537796,-0.623048,-0.475854,-0.504637,-0.338526,-0.331622,-0.121008,-0.130030,0.146977,0.208003,0.478130,0.584013,0.839628,0.870514,1.047554,1.061965,1.204144,1.109424,1.122490,0.915177,0.802355,0.502065,0.348759,0.105216,0.017873,-0.166014,-0.130570,-0.299662,-0.187499,-0.345258,-0.173268,-0.404807,-0.133924,-0.469261,0.088467,-0.777073,0.000000,0.000000,0.000000,0.000000,0.000000,0.000000,0.000000,0.000000,0.000000,0.000000,0.000000,0.000000,0.000000,0.000000,0.000000,0.000000,0.000000,0.000000,0.000000,0.000000,0.000000,0.000000,0.000000,0.000000,0.000000,1.000000
4.208532,4.163554,-0.738912,-0.492944,-0.389761,-0.277301,-0.560881,-0.481190,-0.692371,-0.584194,-0.707857,-0.599748,-0.675789,-0.604878,-0.656041,-0.590516,-0.609978,-0.557012,-0.559934,-0.451007,-0.431339,-0.294895,-0.227461,-0.100268,0.007870,0.220595,0.319634,0.573596,0.670828,0.864094,0.876699,1.049432,1.035273,1.121115,0.976017,0.960995,0.689722,0.585111,0.254630,0.194928,-0.073070,-0.077455,-0.238101,-0.199270,-0.317960,-0.231033,-0.328795,-0.252009,-0.344824,-0.244484,-0.280890,-0.200385,-0.214125,-0.153825,-0.192584,-0.162216,-0.158426,-0.155739,-0.164522,-0.155191,-0.154879,-0.165979,-0.183011,-0.253217,-0.242735,-0.286708,-0.285500,-0.302691,-0.334968,-0.353347,-0.378271,-0.386330,-0.421616,-0.390398,-0.435259,-0.409179,-0.455236,-0.383772,-0.425996,-0.242775,-0.225157,-0.113396,-0.155176,-0.037570,-0.084651,-0.031990,-0.226608,-0.145061,-0.223889,-0.262999,-0.465361,-0.433604,-0.597570,-0.535095,-0.648406,-0.570318,-0.652455,-0.510867,-0.620557,-0.558889,-0.889937,-1.078943,-0.456817,2.028565,5.214059,6.193808,2.445360,-0.765017,-0.655681,-0.297010,-0.371259,-0.522100,-0.536363,-0.694040,-0.698354,-0.730918,-0.684351,-0.722051,-0.690627,-0.682801,-0.652804,-0.613955,-0.645788,-0.537109,-0.526526,-0.443632,-0.436259,-0.295568,-0.235504,-0.037618,0.044710,0.298208,0.382631,0.634182,0.686347,0.926234,0.954193,1.141799,1.096481,1.192459,1.032176,1.019885,0.729200,0.638928,0.307855,0.236481,-0.005008,-0.002817,-0.208607,-0.089365,-0.294646,-0.098926,-0.335135,-0.048193,-0.418732,0.111275,-0.664331,0.000000,0.000000,0.000000,0.000000,0.000000,0.000000,0.000000,0.000000,0.000000,0.000000,0.000000,0.000000,0.000000,0.000000,0.000000,0.000000,0.000000,0.000000,0.000000,0.000000,0.000000,0.000000,0.000000,0.000000,0.000000,0.000000,0.000000,0.000000,0.000000,0.000000,1.000000
4.298827,3.966744,-0.817409,-0.660511,-0.579029,-0.281882,-0.713819,-0.507287,-0.847240,-0.710759,-0.888557,-0.716566,-0.861113,-0.737836,-0.817258,-0.710175,-0.740570,-0.699864,-0.679560,-0.580637,-0.577878,-0.495525,-0.437849,-0.303239,-0.183427,-0.025322,0.148081,0.319548,0.487961,0.634541,0.781945,0.914474,1.007101,1.073922,1.071344,1.029645,0.910252,0.745949,0.526985,0.329639,0.104641,0.006574,-0.152112,-0.198555,-0.265583,-0.267353,-0.308302,-0.272283,-0.312295,-0.269892,-0.310529,-0.176095,-0.233985,-0.170608,-0.188065,-0.117550,-0.163113,-0.103385,-0.127859,-0.077549,-0.094646,-0.146094,-0.165636,-0.185154,-0.195144,-0.246309,-0.254642,-0.308058,-0.308791,-0.376053,-0.301965,-0.415878,-0.336073,-0.438969,-0.370631,-0.442173,-0.358427,-0.400472,-0.271852,-0.215788,-0.151384,-0.134666,-0.035052,-0.074745,-0.003377,-0.189071,-0.190986,-0.189620,-0.224134,-0.364976,-0.397098,-0.484434,-0.514467,-0.554689,-0.527027,-0.582990,-0.536125,-0.575158,-0.517655,-0.722029,-1.053705,-0.716944,1.372631,4.619277,6.341606,3.495626,-0.407717,-0.799506,-0.288337,-0.271476,-0.424594,-0.461911,-0.573473,-0.594881,-0.618033,-0.651054,-0.613913,-0.644500,-0.593278,-0.606463,-0.515283,-0.582633,-0.483834,-0.525815,-0.387900,-0.408793,-0.237199,-0.248080,-0.023999,-0.008648,0.219072,0.340381,0.559408,0.642204,0.825927,0.887988,1.035164,1.041745,1.154520,1.062706,1.037367,0.781180,0.658494,0.390830,0.311002,0.053854,0.066930,-0.120441,-0.020669,-0.210457,-0.015471,-0.292044,0.006359,-0.336844,0.218032,-0.651713,0.000000,0.000000,0.000000,0.000000,0.000000,0.000000,0.000000,0.000000,0.000000,0.000000,0.000000,0.000000,0.000000,0.000000,0.000000,0.000000,0.000000,0.000000,0.000000,0.000000,0.000000,0.000000,0.000000,0.000000,0.000000,0.000000,0.000000,0.000000,0.000000,0.000000,0.000000,1.000000
4.241441,4.550755,-0.481854,-0.676324,-0.514818,-0.146736,-0.563320,-0.381077,-0.687152,-0.541237,-0.721152,-0.609769,-0.713096,-0.609287,-0.688225,-0.578473,-0.606343,-0.552989,-0.575455,-0.498930,-0.480559,-0.382988,-0.330576,-0.221768,-0.120607,0.021106,0.119807,0.369297,0.464064,0.675758,0.732478,0.925680,0.943214,1.084578,1.062075,1.113325,0.944295,0.838923,0.558253,0.452224,0.199642,0.122154,-0.059373,-0.039746,-0.166040,-0.107649,-0.191035,-0.148934,-0.227272,-0.103498,-0.173504,-0.061608,-0.136544,-0.053036,-0.106917,-0.060900,-0.080183,-0.013398,-0.050609,-0.046890,-0.082639,-0.093356,-0.097584,-0.129351,-0.121501,-0.173370,-0.229316,-0.266405,-0.252623,-0.287468,-0.304618,-0.362743,-0.358942,-0.363994,-0.373230,-0.395102,-0.390715,-0.370109,-0.372394,-0.283975,-0.191046,-0.136134,-0.086791,-0.009710,-0.049321,0.022512,-0.141721,-0.168463,-0.144941,-0.121831,-0.336961,-0.350026,-0.505658,-0.499713,-0.622107,-0.512362,-0.624764,-0.514999,-0.645986,-0.498295,-0.729620,-0.963793,-0.728588,1.338400,4.346310,6.175141,4.137540,0.133978,-1.063441,-0.385813,-0.307876,-0.473197,-0.507372,-0.626430,-0.637557,-0.704844,-0.698303,-0.707368,-0.684780,-0.721366,-0.683232,-0.676966,-0.629859,-0.656702,-0.593149,-0.562680,-0.514552,-0.478386,-0.384128,-0.312645,-0.203365,-0.042874,0.077467,0.270615,0.334883,0.551744,0.640104,0.838610,0.845541,0.968974,0.904201,0.965205,0.724102,0.681674,0.322946,0.247743,-0.072013,-0.026230,-0.306264,-0.146987,-0.430953,-0.165622,-0.486456,-0.162286,-0.617613,0.022803,-0.896115,0.000000,0.000000,0.000000,0.000000,0.000000,0.000000,0.000000,0.000000,0.000000,0.000000,0.000000,0.000000,0.000000,0.000000,0.000000,0.000000,0.000000,0.000000,0.000000,0.000000,0.000000,0.000000,0.000000,0.000000,0.000000,0.000000,0.000000,0.000000,0.000000,0.000000,1.000000
4.111213,4.644668,-0.086280,-0.715312,-0.415507,-0.057511,-0.459845,-0.284495,-0.586117,-0.429447,-0.648498,-0.499901,-0.641156,-0.494506,-0.648640,-0.497957,-0.600327,-0.449665,-0.577501,-0.415902,-0.482966,-0.340981,-0.398655,-0.213998,-0.235435,-0.037083,0.029475,0.238035,0.336262,0.490388,0.611105,0.790480,0.890288,0.993174,1.015240,1.053276,1.007587,0.880342,0.724640,0.492953,0.292620,0.114911,0.014138,-0.101530,-0.120080,-0.202921,-0.165543,-0.219745,-0.216774,-0.262640,-0.188307,-0.184063,-0.114162,-0.123366,-0.058238,-0.059795,-0.064460,-0.051148,-0.064060,-0.059204,-0.085890,-0.076365,-0.142642,-0.127922,-0.189721,-0.177418,-0.248760,-0.227844,-0.292604,-0.292695,-0.349473,-0.301139,-0.387407,-0.327515,-0.394685,-0.355706,-0.390298,-0.339358,-0.277969,-0.150704,-0.165408,-0.107528,-0.044457,-0.049687,-0.023405,-0.176496,-0.221735,-0.191685,-0.227479,-0.375830,-0.374879,-0.537845,-0.522748,-0.633716,-0.519102,-0.641390,-0.519745,-0.628836,-0.491251,-0.859045,-1.087393,-0.753191,1.384500,4.325114,6.203564,4.216549,0.060437,-0.915958,-0.299682,-0.347754,-0.470733,-0.553316,-0.660101,-0.683962,-0.717156,-0.724141,-0.767778,-0.714710,-0.705529,-0.704145,-0.697543,-0.667753,-0.676959,-0.601490,-0.577986,-0.515500,-0.440069,-0.357187,-0.265846,-0.161269,-0.018940,0.136720,0.271032,0.419582,0.620060,0.685927,0.850669,0.869662,0.995339,0.903146,0.913752,0.652646,0.592506,0.282807,0.219249,-0.110220,-0.067136,-0.334379,-0.181138,-0.425201,-0.177936,-0.502422,-0.145056,-0.564575,0.049389,-0.867190,0.000000,0.000000,0.000000,0.000000,0.000000,0.000000,0.000000,0.000000,0.000000,0.000000,0.000000,0.000000,0.000000,0.000000,0.000000,0.000000,0.000000,0.000000,0.000000,0.000000,0.000000,0.000000,0.000000,0.000000,0.000000,0.000000,0.000000,0.000000,0.000000,0.000000,0.000000,1.000000
4.400111,5.003281,-0.113557,-0.614046,-0.357945,-0.100423,-0.484561,-0.344570,-0.656114,-0.497537,-0.701762,-0.549473,-0.745365,-0.548502,-0.675195,-0.541476,-0.663808,-0.507340,-0.639868,-0.443439,-0.535652,-0.357335,-0.394033,-0.195744,-0.214862,0.004146,0.036987,0.309393,0.336622,0.598245,0.694790,0.877406,0.931092,1.070816,1.080293,1.114563,0.999788,0.869114,0.666145,0.496995,0.275452,0.100138,-0.036793,-0.121128,-0.176111,-0.196091,-0.202842,-0.234900,-0.228689,-0.213282,-0.185524,-0.166446,-0.165848,-0.116298,-0.148906,-0.113866,-0.117677,-0.066029,-0.106309,-0.073166,-0.163928,-0.128610,-0.163396,-0.060033,-0.194501,-0.165635,-0.251400,-0.198345,-0.313726,-0.236714,-0.359319,-0.294779,-0.388774,-0.294425,-0.425499,-0.350055,-0.426202,-0.375817,-0.429542,-0.320970,-0.310387,-0.178837,-0.192194,-0.080338,-0.079263,-0.025892,-0.061864,-0.169835,-0.223639,-0.163328,-0.272964,-0.360788,-0.448783,-0.500511,-0.544278,-0.577426,-0.568653,-0.575970,-0.585112,-0.531568,-0.610310,-0.543419,-0.850016,-0.977213,-0.345238,2.118352,4.835013,5.849992,3.265801,-0.133223,-0.946583,-0.395494,-0.368735,-0.502958,-0.512891,-0.598615,-0.674780,-0.651559,-0.711213,-0.674291,-0.761855,-0.680526,-0.714378,-0.648430,-0.707783,-0.624012,-0.657967,-0.559839,-0.589658,-0.478210,-0.437305,-0.318947,-0.280043,-0.099280,-0.014922,0.193352,0.292787,0.479657,0.585381,0.734678,0.814375,0.923685,0.902585,0.923652,0.828182,0.735377,0.523802,0.400814,0.155645,0.108967,-0.070044,-0.031752,-0.229748,-0.056713,-0.326476,-0.042553,-0.475958,0.126739,-0.815465,0.000000,0.000000,0.000000,0.000000,0.000000,0.000000,0.000000,0.000000,0.000000,0.000000,0.000000,0.000000,0.000000,0.000000,0.000000,0.000000,0.000000,0.000000,0.000000,0.000000,0.000000,0.000000,0.000000,0.000000,0.000000,0.000000,0.000000,0.000000,1.000000
4.025317,4.239615,-0.176675,-0.714140,-0.523086,-0.162012,-0.548884,-0.356438,-0.615354,-0.543861,-0.662252,-0.592266,-0.676629,-0.649915,-0.683688,-0.607387,-0.644258,-0.603155,-0.619250,-0.555580,-0.553000,-0.486388,-0.472330,-0.336022,-0.306503,-0.178004,-0.087210,0.091653,0.209310,0.408746,0.502388,0.710145,0.766530,0.947556,0.964789,1.049641,0.968473,0.984184,0.783904,0.683246,0.438154,0.312507,0.121981,0.085336,-0.039295,-0.063135,-0.097834,-0.122126,-0.141160,-0.185121,-0.138224,-0.155603,-0.106827,-0.105560,-0.049198,-0.088852,-0.019367,-0.059002,0.023553,-0.003147,0.064983,-0.007846,0.035374,-0.038444,0.047874,-0.057239,-0.022229,-0.122744,-0.102460,-0.124909,-0.139835,-0.205388,-0.212116,-0.258524,-0.273076,-0.283546,-0.300339,-0.307628,-0.324545,-0.317115,-0.372856,-0.327322,-0.382511,-0.371904,-0.383170,-0.277985,-0.178015,-0.127002,-0.118250,-0.040450,-0.040337,0.018216,-0.022635,-0.109289,-0.178689,-0.141005,-0.207168,-0.332225,-0.397164,-0.499827,-0.518104,-0.593813,-0.554911,-0.655948,-0.557159,-0.640770,-0.523161,-0.652596,-0.565233,-1.119533,-1.035860,-0.470699,2.017060,5.042130,6.616201,3.746208,-0.190666,-0.891972,-0.356884,-0.270254,-0.471375,-0.486175,-0.620022,-0.671394,-0.695926,-0.723218,-0.733262,-0.734328,-0.735071,-0.726901,-0.711423,-0.694488,-0.674979,-0.637107,-0.633055,-0.576755,-0.536842,-0.465286,-0.403429,-0.311183,-0.178853,-0.063295,0.082549,0.205959,0.413749,0.487651,0.716872,0.774230,0.968668,0.942642,1.065671,0.972411,1.012610,0.721507,0.704268,0.319185,0.306853,-0.048568,0.050218,-0.265063,-0.097937,-0.405350,-0.109085,-0.522408,0.053842,-0.839093,0.000000,0.000000,0.000000,0.000000,0.000000,0.000000,0.000000,0.000000,0.000000,0.000000,0.000000,0.000000,0.000000,0.000000,0.000000,0.000000,0.000000,0.000000,0.000000,0.000000,0.000000,1.000000
4.358592,4.651235,-0.170043,-0.588632,-0.469239,-0.016898,-0.477947,-0.271914,-0.591454,-0.473543,-0.659905,-0.534363,-0.689661,-0.554952,-0.685356,-0.555145,-0.659529,-0.528537,-0.622368,-0.478289,-0.576144,-0.429484,-0.482738,-0.328643,-0.352863,-0.190043,-0.142487,0.043906,0.110937,0.294571,0.427277,0.572142,0.712674,0.854844,0.960330,1.033140,1.061845,1.073418,1.030972,0.863972,0.734711,0.500292,0.335723,0.150090,0.055166,-0.045129,-0.119485,-0.158924,-0.183593,-0.201793,-0.173781,-0.182687,-0.159615,-0.158437,-0.165585,-0.101202,-0.118632,-0.090330,-0.073519,-0.056802,-0.082967,-0.029655,-0.074553,-0.060010,-0.112296,-0.101853,-0.169909,-0.127699,-0.195824,-0.200738,-0.255876,-0.268008,-0.331126,-0.315870,-0.350014,-0.357281,-0.372514,-0.379515,-0.339508,-0.382283,-0.349834,-0.372364,-0.367275,-0.405712,-0.314798,-0.345600,-0.160005,-0.190653,-0.075259,-0.079629,0.033072,-0.013979,0.004924,-0.159959,-0.162132,-0.166412,-0.181697,-0.358673,-0.362903,-0.491937,-0.496140,-0.568602,-0.522925,-0.583058,-0.524919,-0.597127,-0.522848,-0.598224,-0.528364,-0.891058,-1.033340,-0.382349,2.114302,5.169433,6.368388,3.266537,-0.479208,-0.782133,-0.397409,-0.303474,-0.532138,-0.497293,-0.640063,-0.651271,-0.704963,-0.701020,-0.704509,-0.712109,-0.702485,-0.714127,-0.663944,-0.701307,-0.587195,-0.658436,-0.495866,-0.526548,-0.401100,-0.377007,-0.180972,-0.140509,0.118316,0.175359,0.427428,0.476543,0.691374,0.718444,0.933044,0.914414,1.050091,0.916730,0.929765,0.667604,0.566085,0.247893,0.171144,-0.085262,-0.067249,-0.240743,-0.167011,-0.340152,-0.159910,-0.383203,-0.107914,-0.462377,0.103066,-0.785921,0.000000,0.000000,0.000000,0.000000,0.000000,0.000000,0.000000,0.000000,0.000000,0.000000,0.000000,0.000000,0.000000,0.000000,0.000000,0.000000,0.000000,0.000000,0.000000,0.000000,0.000000,1.000000
4.450204,4.594450,-0.378193,-0.748476,-0.664450,-0.237001,-0.676071,-0.485971,-0.759328,-0.660429,-0.823653,-0.723743,-0.820504,-0.739614,-0.814089,-0.748677,-0.773764,-0.738200,-0.701884,-0.689688,-0.621985,-0.554258,-0.525631,-0.413291,-0.308571,-0.177465,-0.014700,0.142860,0.294628,0.449625,0.561463,0.695556,0.803049,0.900061,0.923456,0.913501,0.804844,0.674294,0.437691,0.259286,0.030729,-0.069342,-0.223131,-0.214111,-0.341042,-0.292762,-0.364063,-0.295612,-0.370125,-0.284211,-0.318939,-0.243710,-0.250421,-0.192234,-0.214944,-0.160147,-0.170158,-0.150779,-0.173130,-0.194412,-0.191272,-0.236902,-0.264441,-0.291473,-0.312687,-0.389989,-0.372544,-0.389202,-0.378025,-0.431700,-0.404829,-0.482484,-0.435236,-0.508879,-0.440963,-0.509794,-0.447414,-0.516624,-0.452752,-0.485295,-0.461478,-0.497647,-0.441270,-0.475804,-0.411961,-0.325631,-0.240433,-0.179616,-0.135861,-0.081938,-0.082087,-0.109738,-0.230195,-0.228541,-0.178013,-0.269002,-0.374561,-0.401549,-0.496428,-0.519010,-0.541033,-0.534562,-0.546048,-0.543609,-0.541275,-0.542312,-0.536398,-0.523651,-0.457714,-0.552596,-0.853439,-0.774223,1.005896,4.347842,6.627365,3.716712,-0.393128,-0.668566,-0.139271,-0.298240,-0.314159,-0.477405,-0.499802,-0.537216,-0.482153,-0.550831,-0.459678,-0.517713,-0.422133,-0.475169,-0.361658,-0.390315,-0.279931,-0.279752,-0.137895,-0.100637,0.049684,0.161749,0.342504,0.482198,0.684109,0.837341,0.992575,1.104121,1.201658,1.271811,1.282048,1.222971,1.127841,0.979290,0.798619,0.558243,0.445133,0.275331,0.255153,0.110762,0.154952,0.060552,0.177155,0.066553,0.255042,0.023498,0.342968,0.001881,0.542567,-0.303129,0.000000,0.000000,0.000000,0.000000,0.000000,0.000000,0.000000,0.000000,0.000000,0.000000,0.000000,0.000000,0.000000,0.000000,0.000000,0.000000,0.000000,0.000000,0.000000,0.000000,0.000000,1.000000
4.386752,4.009753,-1.104536,-0.820837,-0.668743,-0.524486,-0.797930,-0.746719,-0.964599,-0.830077,-0.930327,-0.856744,-0.897710,-0.830298,-0.852524,-0.791469,-0.786643,-0.706789,-0.699674,-0.595344,-0.552640,-0.411096,-0.359303,-0.143054,-0.055924,0.187539,0.297170,0.557234,0.620783,0.837687,0.841582,1.015813,0.934732,0.976103,0.782696,0.731405,0.450181,0.298949,0.070552,0.001510,-0.139677,-0.165476,-0.259734,-0.215073,-0.252866,-0.195278,-0.194368,-0.199956,-0.164714,-0.138857,-0.104709,-0.110360,-0.030590,-0.073521,-0.014952,-0.052404,-0.021811,-0.059248,-0.002276,-0.077962,-0.049388,-0.140056,-0.099363,-0.176556,-0.162491,-0.230085,-0.201562,-0.247259,-0.247459,-0.314219,-0.274763,-0.320039,-0.316363,-0.341168,-0.341638,-0.332849,-0.348476,-0.340412,-0.347444,-0.328251,-0.313164,-0.176080,-0.087292,-0.042616,-0.004804,0.057099,0.057211,0.025302,-0.120590,-0.081578,-0.080011,-0.210327,-0.288229,-0.396862,-0.425959,-0.480561,-0.444074,-0.486501,-0.448745,-0.547475,-0.464033,-0.510716,-0.406976,-0.487030,-0.360662,-0.593314,-0.844762,-0.725360,1.530402,4.984473,6.746518,3.247303,-0.646314,-0.520112,-0.102856,-0.248965,-0.309593,-0.436041,-0.466610,-0.491377,-0.500219,-0.525146,-0.524905,-0.535446,-0.492081,-0.478611,-0.451109,-0.413447,-0.400881,-0.329884,-0.281955,-0.195049,-0.089021,0.028524,0.178837,0.331928,0.481292,0.650137,0.753188,0.844002,0.989129,1.017026,1.093989,1.015657,0.967921,0.734448,0.663358,0.330016,0.261391,-0.048025,0.044438,-0.242068,-0.098575,-0.349553,-0.101754,-0.407104,-0.112795,-0.435911,-0.046782,-0.526273,0.188345,-0.825059,0.000000,0.000000,0.000000,0.000000,0.000000,0.000000,0.000000,0.000000,0.000000,0.000000,0.000000,0.000000,0.000000,0.000000,0.000000,0.000000,0.000000,0.000000,0.000000,0.000000,0.000000,0.000000,0.000000,0.000000,0.000000,1.000000
4.558933,4.784374,-0.503839,-0.180914,-0.088886,0.140824,-0.228609,-0.081758,-0.368647,-0.167891,-0.385230,-0.215170,-0.400380,-0.237269,-0.367587,-0.186085,-0.321989,-0.128305,-0.266022,-0.057215,-0.145901,0.068173,0.041136,0.284025,0.301669,0.581019,0.602835,0.892925,0.885902,1.085480,1.117566,1.267887,1.229553,1.281326,1.121745,1.016407,0.821191,0.630018,0.414665,0.253154,0.175161,0.072281,0.014089,-0.026205,-0.013956,-0.053947,-0.060380,-0.044625,-0.051584,-0.045412,0.011394,0.032029,0.016031,0.029073,0.025552,0.059931,0.017023,0.074089,0.022999,0.047597,-0.027933,0.046049,-0.079920,-0.018320,-0.101224,-0.056419,-0.196522,-0.139366,-0.287628,-0.177840,-0.325662,-0.251878,-0.337487,-0.263885,-0.391522,-0.327259,-0.414444,-0.326781,-0.409094,-0.366753,-0.434983,-0.416213,-0.440836,-0.376070,-0.319956,-0.196997,-0.155543,-0.135467,-0.102185,-0.102534,-0.197463,-0.320062,-0.238554,-0.284905,-0.400045,-0.464057,-0.526146,-0.585735,-0.641555,-0.627404,-0.652874,-0.625971,-0.712265,-0.660153,-0.748815,-0.616658,-0.700454,-0.591554,-0.910369,-1.087847,-0.785904,1.335927,4.255603,6.164340,3.890736,-0.092979,-1.131238,-0.593719,-0.475891,-0.543728,-0.670730,-0.755157,-0.785521,-0.776335,-0.829024,-0.782792,-0.815738,-0.794376,-0.793133,-0.771624,-0.776352,-0.734569,-0.737799,-0.658455,-0.644793,-0.571342,-0.495165,-0.425460,-0.329062,-0.192649,-0.041689,0.090752,0.222235,0.343491,0.447353,0.572788,0.630027,0.702511,0.691266,0.687725,0.536948,0.480858,0.211876,0.117587,-0.162123,-0.141619,-0.401943,-0.288844,-0.553566,-0.348558,-0.678655,-0.291741,-0.808729,-0.117617,-1.206093,0.000000,0.000000,0.000000,0.000000,0.000000,0.000000,0.000000,0.000000,0.000000,0.000000,0.000000,0.000000,0.000000,0.000000,0.000000,0.000000,0.000000,0.000000,0.000000,0.000000,0.000000,0.000000,1.000000
4.211492,5.098865,0.249220,-0.537889,-0.421369,0.045329,-0.276234,-0.171983,-0.459595,-0.313913,-0.467320,-0.367004,-0.468184,-0.360600,-0.472738,-0.346594,-0.444318,-0.335305,-0.405151,-0.301206,-0.330659,-0.211963,-0.245159,-0.069450,-0.100884,0.089848,0.124806,0.368949,0.401704,0.626963,0.647699,0.848045,0.869522,1.029058,0.993370,1.092553,0.974376,0.947108,0.765820,0.636586,0.402608,0.283307,0.138686,0.065661,-0.022637,-0.056875,-0.112441,-0.133584,-0.118448,-0.163822,-0.120136,-0.155091,-0.102220,-0.112000,-0.057390,-0.088718,-0.030521,-0.040154,-0.011687,-0.021577,-0.001643,-0.047379,-0.023027,-0.063379,-0.059995,-0.116963,-0.124272,-0.183038,-0.193338,-0.241097,-0.268506,-0.275582,-0.292874,-0.303079,-0.354694,-0.347768,-0.382599,-0.371426,-0.411289,-0.378959,-0.430582,-0.354151,-0.344977,-0.160564,-0.191230,-0.078546,-0.136791,-0.100520,-0.123023,-0.242538,-0.285631,-0.204936,-0.328888,-0.452187,-0.507266,-0.618462,-0.644636,-0.657074,-0.638206,-0.677814,-0.637601,-0.662393,-0.624488,-0.740673,-1.010153,-1.008101,0.607255,3.760644,6.176934,4.453932,0.243925,-1.078863,-0.457923,-0.432108,-0.536413,-0.653575,-0.692327,-0.821494,-0.798668,-0.830535,-0.787427,-0.816634,-0.786741,-0.796260,-0.756626,-0.771006,-0.735975,-0.695394,-0.645409,-0.616653,-0.557932,-0.490398,-0.403832,-0.294749,-0.140712,0.020381,0.163531,0.336717,0.508627,0.610111,0.744004,0.789574,0.908834,0.890276,0.907675,0.763554,0.714304,0.432616,0.361856,-0.007155,-0.005374,-0.308127,-0.197819,-0.496963,-0.244495,-0.614607,-0.243178,-0.696716,-0.077776,-1.059304,0.000000,0.000000,0.000000,0.000000,0.000000,0.000000,0.000000,0.000000,0.000000,0.000000,0.000000,0.000000,0.000000,0.000000,0.000000,0.000000,0.000000,0.000000,0.000000,0.000000,0.000000,0.000000,0.000000,0.000000,0.000000,0.000000,0.000000,1.000000
4.260002,4.927403,-0.042070,-0.654932,-0.437544,-0.113138,-0.484439,-0.362914,-0.612849,-0.547251,-0.700451,-0.566341,-0.680095,-0.560161,-0.673443,-0.544746,-0.639726,-0.523135,-0.616839,-0.450737,-0.525805,-0.374371,-0.438978,-0.251060,-0.287144,-0.059533,-0.029453,0.250922,0.270695,0.561695,0.611274,0.834768,0.843581,1.015266,1.004921,1.121604,1.007456,1.005071,0.818706,0.689879,0.466830,0.268044,0.086338,-0.020980,-0.124977,-0.190080,-0.206059,-0.263204,-0.268692,-0.257582,-0.262804,-0.253386,-0.230574,-0.246162,-0.225396,-0.179671,-0.156060,-0.111918,-0.110720,-0.088796,-0.102351,-0.089807,-0.108764,-0.112543,-0.160855,-0.133943,-0.184651,-0.186554,-0.265931,-0.218442,-0.343410,-0.263610,-0.361231,-0.285606,-0.388560,-0.305434,-0.420933,-0.366975,-0.455479,-0.381015,-0.461859,-0.382213,-0.482842,-0.416597,-0.468937,-0.361234,-0.389875,-0.185160,-0.205265,-0.123649,-0.116069,-0.071833,-0.069286,-0.127947,-0.259455,-0.169494,-0.262848,-0.337691,-0.431189,-0.505618,-0.590831,-0.593644,-0.613946,-0.606647,-0.656279,-0.611643,-0.595483,-0.524478,-0.759092,-1.002537,-0.664416,1.555259,4.844071,6.448998,3.154552,-0.481883,-0.824314,-0.356706,-0.341055,-0.462278,-0.499111,-0.595568,-0.625235,-0.614019,-0.671127,-0.612234,-0.678453,-0.634026,-0.684192,-0.613480,-0.639259,-0.541504,-0.580995,-0.492540,-0.501883,-0.369970,-0.367514,-0.206592,-0.125294,0.024215,0.123169,0.338108,0.455399,0.662131,0.740866,0.866510,0.947544,1.039947,1.068130,1.086265,0.968295,0.895027,0.694968,0.547459,0.259521,0.184972,-0.041985,-0.024654,-0.220659,-0.087016,-0.334484,-0.064924,-0.422100,0.104890,-0.781330,0.000000,0.000000,0.000000,0.000000,0.000000,0.000000,0.000000,0.000000,0.000000,0.000000,0.000000,0.000000,0.000000,0.000000,0.000000,0.000000,0.000000,0.000000,0.000000,0.000000,0.000000,0.000000,1.000000
4.386569,4.106067,-0.688194,-0.784010,-0.676849,-0.305853,-0.696170,-0.507685,-0.801320,-0.664027,-0.810709,-0.719356,-0.806740,-0.728652,-0.824387,-0.741155,-0.803532,-0.701973,-0.730827,-0.641393,-0.681858,-0.567549,-0.562906,-0.431728,-0.407795,-0.193673,-0.171883,0.049577,0.136327,0.385871,0.462516,0.685228,0.674014,0.893067,0.855999,1.022143,0.917594,0.943535,0.732948,0.683207,0.391894,0.255428,0.003783,-0.047409,-0.231412,-0.219835,-0.327065,-0.300223,-0.366438,-0.306887,-0.349089,-0.311053,-0.318239,-0.312383,-0.271655,-0.262131,-0.229766,-0.228159,-0.236383,-0.222196,-0.180232,-0.170375,-0.185919,-0.205937,-0.177334,-0.202803,-0.244106,-0.256783,-0.295075,-0.296116,-0.320640,-0.321501,-0.368237,-0.345497,-0.438228,-0.396372,-0.434280,-0.380841,-0.485428,-0.405847,-0.510069,-0.400630,-0.468936,-0.413713,-0.484987,-0.368575,-0.453761,-0.335282,-0.350404,-0.207546,-0.200852,-0.105135,-0.091363,-0.035353,-0.088273,-0.062829,-0.189363,-0.175345,-0.118583,-0.155754,-0.288752,-0.387779,-0.440613,-0.460980,-0.527167,-0.518200,-0.520942,-0.507087,-0.533454,-0.485727,-0.500472,-0.489071,-0.794551,-0.854041,-0.357442,1.757589,4.581900,6.334368,4.426640,0.415479,-0.824815,-0.365967,-0.159698,-0.329181,-0.382610,-0.419924,-0.532535,-0.489617,-0.577282,-0.518233,-0.603385,-0.511310,-0.563347,-0.467158,-0.544959,-0.414383,-0.469374,-0.365601,-0.412460,-0.276087,-0.259425,-0.121801,-0.073573,0.086307,0.192661,0.411192,0.499608,0.706853,0.814940,0.965289,1.054454,1.184593,1.203175,1.224591,1.156900,1.110096,0.941156,0.840025,0.555620,0.503615,0.234701,0.253204,0.037397,0.166501,-0.088060,0.182793,-0.224937,0.333594,-0.580158,0.000000,0.000000,0.000000,0.000000,0.000000,0.000000,0.000000,0.000000,0.000000,0.000000,0.000000,0.000000,0.000000,0.000000,0.000000,0.000000,0.000000,0.000000,1.000000
3.867175,4.956229,0.327056,-0.877930,-0.847365,-0.311694,-0.673722,-0.560638,-0.746474,-0.713971,-0.815347,-0.764070,-0.839091,-0.794197,-0.834271,-0.761479,-0.788068,-0.744241,-0.742658,-0.671373,-0.693953,-0.619022,-0.613987,-0.476818,-0.466600,-0.302941,-0.270074,-0.055302,0.037437,0.241761,0.316960,0.545207,0.566691,0.775558,0.777088,0.926137,0.819458,0.889304,0.711303,0.692762,0.451419,0.336207,0.116206,0.042084,-0.142424,-0.129106,-0.253959,-0.212908,-0.293157,-0.259593,-0.298865,-0.263225,-0.258922,-0.222041,-0.196854,-0.180853,-0.150392,-0.116247,-0.133822,-0.111474,-0.088474,-0.096987,-0.095024,-0.098768,-0.097840,-0.118176,-0.123288,-0.158276,-0.183778,-0.217366,-0.214882,-0.272798,-0.303210,-0.313172,-0.340609,-0.371363,-0.392108,-0.347723,-0.396436,-0.339216,-0.393157,-0.336887,-0.399247,-0.302793,-0.349720,-0.193703,-0.212596,-0.092055,-0.098567,-0.000072,-0.076273,-0.036474,-0.242074,-0.120204,-0.174699,-0.217275,-0.386976,-0.386546,-0.501702,-0.450855,-0.554605,-0.473938,-0.544409,-0.446036,-0.535707,-0.458164,-0.748051,-0.993011,-0.604260,1.425085,4.598362,6.390933,4.016468,-0.126068,-0.750631,-0.274656,-0.232987,-0.402220,-0.410901,-0.584282,-0.548394,-0.621249,-0.594414,-0.619683,-0.606174,-0.604955,-0.597490,-0.545951,-0.549128,-0.500056,-0.462846,-0.393950,-0.381867,-0.261701,-0.221100,-0.054176,0.011706,0.233449,0.318702,0.568573,0.609806,0.856495,0.880385,1.092166,1.080239,1.207731,1.105340,1.139696,0.861702,0.803347,0.457544,0.359480,0.108703,0.096996,-0.109921,0.004544,-0.181172,-0.015536,-0.211299,0.040947,-0.272154,0.155228,-0.576028,0.000000,0.000000,0.000000,0.000000,0.000000,0.000000,0.000000,0.000000,0.000000,0.000000,0.000000,0.000000,0.000000,0.000000,0.000000,0.000000,0.000000,0.000000,0.000000,0.000000,0.000000,0.000000,0.000000,0.000000,1.000000
4.335093,4.573638,-0.500292,-0.700948,-0.571117,-0.236913,-0.647398,-0.452316,-0.808114,-0.612702,-0.831660,-0.671418,-0.820895,-0.691172,-0.799528,-0.687908,-0.735090,-0.642360,-0.685069,-0.557553,-0.574435,-0.477066,-0.438097,-0.314622,-0.225554,-0.078126,0.068149,0.234525,0.409662,0.531219,0.702699,0.807400,0.941695,1.011905,1.056827,1.038908,0.983236,0.791956,0.635993,0.383553,0.178569,0.036904,-0.096926,-0.173435,-0.203123,-0.228244,-0.246272,-0.225990,-0.235825,-0.213676,-0.254847,-0.206008,-0.200644,-0.135656,-0.159757,-0.102200,-0.136767,-0.077297,-0.146036,-0.100187,-0.172334,-0.088972,-0.197769,-0.186658,-0.229716,-0.233324,-0.276622,-0.294804,-0.357107,-0.376510,-0.349748,-0.394066,-0.391783,-0.425554,-0.389837,-0.440345,-0.390497,-0.425275,-0.380993,-0.444025,-0.346862,-0.292087,-0.155431,-0.176372,-0.040121,-0.095450,-0.005101,-0.168037,-0.193592,-0.207468,-0.149686,-0.411543,-0.370871,-0.526632,-0.481593,-0.598408,-0.530308,-0.620430,-0.536835,-0.582416,-0.520366,-0.679772,-0.978451,-0.707978,1.356028,4.557648,6.350575,3.516049,-0.529907,-0.749313,-0.264379,-0.292969,-0.451052,-0.446154,-0.559607,-0.543721,-0.630907,-0.575815,-0.604549,-0.585644,-0.594578,-0.560213,-0.529741,-0.543770,-0.504478,-0.491822,-0.389391,-0.368852,-0.231002,-0.198063,0.015894,0.072864,0.346255,0.404710,0.663232,0.712467,0.929072,0.935110,1.112428,1.028771,1.087601,0.858929,0.839499,0.475819,0.427500,0.125079,0.138851,-0.075776,0.021467,-0.157584,-0.013248,-0.225888,0.010260,-0.259613,0.039541,-0.274384,0.225929,-0.596098,0.000000,0.000000,0.000000,0.000000,0.000000,0.000000,0.000000,0.000000,0.000000,0.000000,0.000000,0.000000,0.000000,0.000000,0.000000,0.000000,0.000000,0.000000,0.000000,0.000000,0.000000,0.000000,0.000000,0.000000,0.000000,0.000000,0.000000,0.000000,0.000000,1.000000
4.537766,4.059744,-1.030072,-0.676066,-0.547515,-0.288943,-0.704783,-0.482026,-0.798026,-0.602459,-0.860989,-0.644823,-0.824963,-0.662095,-0.808637,-0.638145,-0.736070,-0.624219,-0.706227,-0.569227,-0.580990,-0.438334,-0.410503,-0.255084,-0.145105,0.035409,0.208807,0.390340,0.546669,0.720273,0.828094,0.959879,1.020284,1.061051,0.987397,0.881460,0.715652,0.474940,0.269824,0.108216,-0.046098,-0.094601,-0.183043,-0.166240,-0.238808,-0.215398,-0.243533,-0.210520,-0.271368,-0.132163,-0.238506,-0.098344,-0.154734,-0.056285,-0.127659,-0.021185,-0.121641,-0.019707,-0.125242,-0.032728,-0.176568,-0.126381,-0.219391,-0.176434,-0.259009,-0.215421,-0.305791,-0.237267,-0.318880,-0.309245,-0.359357,-0.366764,-0.418332,-0.373925,-0.387849,-0.388135,-0.394654,-0.419942,-0.382728,-0.312439,-0.171178,-0.134159,-0.054884,-0.055890,-0.017461,-0.040390,-0.099779,-0.232683,-0.132985,-0.211290,-0.336904,-0.361878,-0.466330,-0.509520,-0.578255,-0.524898,-0.568790,-0.487749,-0.554563,-0.475555,-0.662665,-0.925094,-0.765096,1.211153,4.345871,6.467324,3.826353,-0.304089,-0.792569,-0.161962,-0.399564,-0.426380,-0.569217,-0.582076,-0.670717,-0.604570,-0.685525,-0.589569,-0.640942,-0.594622,-0.609219,-0.542625,-0.552309,-0.464429,-0.427887,-0.356298,-0.288918,-0.180299,-0.038846,0.134859,0.333015,0.513452,0.674367,0.807647,0.951413,1.079118,1.108664,1.095456,0.977750,0.825025,0.603442,0.430527,0.191495,0.122557,-0.060398,-0.037278,-0.197495,-0.119172,-0.221369,-0.045696,-0.238031,0.019406,-0.261939,0.141038,-0.311367,0.321744,-0.662496,0.000000,0.000000,0.000000,0.000000,0.000000,0.000000,0.000000,0.000000,0.000000,0.000000,0.000000,0.000000,0.000000,0.000000,0.000000,0.000000,0.000000,0.000000,0.000000,0.000000,0.000000,0.000000,0.000000,0.000000,0.000000,0.000000,0.000000,0.000000,0.000000,0.000000,1.000000
4.081619,4.051009,-0.664137,-0.603377,-0.373750,-0.310142,-0.577073,-0.504172,-0.700659,-0.619370,-0.708014,-0.644712,-0.685546,-0.609198,-0.684105,-0.585148,-0.630603,-0.534858,-0.554847,-0.419611,-0.450045,-0.291082,-0.283386,-0.058368,0.014257,0.291533,0.375234,0.616879,0.656864,0.878903,0.917261,1.036834,0.940559,0.922793,0.691616,0.572977,0.317099,0.182292,0.013605,-0.056262,-0.150153,-0.180159,-0.241985,-0.199850,-0.187247,-0.192872,-0.155526,-0.175975,-0.101458,-0.128763,-0.086804,-0.108066,-0.073089,-0.130957,-0.089151,-0.099267,-0.056654,-0.107559,-0.062153,-0.159408,-0.142771,-0.176177,-0.153405,-0.212112,-0.200729,-0.252052,-0.295170,-0.324005,-0.329774,-0.332201,-0.346914,-0.343956,-0.371444,-0.357361,-0.381168,-0.368974,-0.378432,-0.276254,-0.171361,-0.116022,-0.108490,-0.044122,-0.039439,-0.002914,-0.105247,-0.198030,-0.132048,-0.181863,-0.283192,-0.372348,-0.430669,-0.510204,-0.514711,-0.573699,-0.523075,-0.604198,-0.502236,-0.603621,-0.469887,-0.801940,-1.010504,-0.643501,1.689610,4.882062,6.609516,3.573918,-0.402324,-0.812559,-0.225666,-0.358478,-0.434092,-0.552660,-0.631094,-0.668285,-0.658815,-0.687652,-0.651238,-0.677159,-0.656151,-0.634741,-0.636992,-0.585660,-0.574541,-0.517210,-0.466200,-0.385627,-0.335434,-0.187767,-0.044170,0.115352,0.310760,0.436019,0.637345,0.768346,0.863160,0.931292,1.035333,1.009649,1.032045,0.854112,0.789706,0.475997,0.385900,0.078805,0.079436,-0.192046,-0.079184,-0.339264,-0.127122,-0.389988,-0.105083,-0.409112,-0.062879,-0.504095,0.098459,-0.803085,0.000000,0.000000,0.000000,0.000000,0.000000,0.000000,0.000000,0.000000,0.000000,0.000000,0.000000,0.000000,0.000000,0.000000,0.000000,0.000000,0.000000,0.000000,0.000000,0.000000,0.000000,0.000000,0.000000,0.000000,0.000000,0.000000,0.000000,0.000000,0.000000,0.000000,0.000000,1.000000
4.292295,4.563148,-0.431676,-0.627352,-0.406733,-0.173621,-0.531285,-0.403729,-0.696785,-0.548618,-0.712082,-0.580527,-0.697869,-0.576060,-0.697729,-0.543247,-0.671481,-0.504951,-0.605248,-0.444907,-0.499560,-0.320761,-0.370407,-0.139787,-0.088544,0.151191,0.255554,0.465874,0.570445,0.792338,0.798418,0.950853,0.967551,1.034333,0.969569,0.893645,0.736647,0.536335,0.338910,0.153532,0.029997,-0.104559,-0.138705,-0.236278,-0.205100,-0.265451,-0.212276,-0.247340,-0.222381,-0.258951,-0.211317,-0.219940,-0.142338,-0.164050,-0.099348,-0.126786,-0.108339,-0.124757,-0.126110,-0.136071,-0.115164,-0.130111,-0.128420,-0.193825,-0.204347,-0.201917,-0.236175,-0.214612,-0.255562,-0.288096,-0.308879,-0.297303,-0.340408,-0.323512,-0.355981,-0.332470,-0.387219,-0.349253,-0.346341,-0.340790,-0.358341,-0.374503,-0.374238,-0.274239,-0.146151,-0.159652,-0.073543,-0.082620,-0.017158,-0.039179,-0.051253,-0.225052,-0.128979,-0.211218,-0.256640,-0.407336,-0.369458,-0.538690,-0.496084,-0.604608,-0.501086,-0.655821,-0.512879,-0.600838,-0.472852,-0.789080,-1.032681,-0.592366,1.844306,4.929346,6.323361,3.662771,-0.222274,-0.827243,-0.336537,-0.291181,-0.482028,-0.479966,-0.645937,-0.616697,-0.701594,-0.668942,-0.722992,-0.647912,-0.689850,-0.644034,-0.664911,-0.565758,-0.564955,-0.521632,-0.489442,-0.417547,-0.330848,-0.243807,-0.113628,0.027493,0.226937,0.342168,0.536304,0.609349,0.830914,0.828954,1.033419,0.972795,1.076322,0.856688,0.922946,0.582821,0.568918,0.185928,0.208305,-0.152924,-0.045375,-0.314920,-0.093693,-0.371249,-0.119205,-0.455095,-0.094802,-0.487729,0.111493,-0.837481,0.000000,0.000000,0.000000,0.000000,0.000000,0.000000,0.000000,0.000000,0.000000,0.000000,0.000000,0.000000,0.000000,0.000000,0.000000,0.000000,0.000000,0.000000,0.000000,0.000000,0.000000,0.000000,0.000000,0.000000,0.000000,1.000000
4.549391,4.640396,-0.414452,-0.627215,-0.490020,-0.114346,-0.582154,-0.351038,-0.730684,-0.517170,-0.776726,-0.583894,-0.791823,-0.570268,-0.749932,-0.570831,-0.720644,-0.493372,-0.610672,-0.448277,-0.530210,-0.340598,-0.362497,-0.157747,-0.133618,0.127392,0.226125,0.462126,0.553513,0.746779,0.863918,0.983847,1.075865,1.141815,1.121523,1.026125,0.955199,0.745640,0.574658,0.333389,0.182400,-0.015736,-0.101637,-0.174708,-0.173254,-0.210419,-0.231051,-0.257451,-0.266475,-0.200346,-0.212295,-0.191747,-0.181024,-0.120073,-0.151061,-0.074021,-0.134775,-0.065103,-0.150050,-0.064864,-0.152672,-0.104113,-0.172321,-0.090175,-0.228923,-0.155488,-0.258779,-0.183884,-0.325651,-0.264058,-0.390182,-0.302551,-0.366703,-0.303711,-0.412886,-0.398253,-0.473453,-0.403394,-0.447725,-0.428914,-0.420156,-0.421881,-0.425521,-0.408401,-0.318177,-0.181965,-0.190034,-0.169869,-0.120519,-0.083023,-0.028722,-0.107930,-0.214403,-0.211395,-0.212467,-0.331180,-0.414893,-0.492947,-0.536945,-0.560604,-0.603677,-0.545129,-0.622386,-0.549315,-0.599446,-0.502523,-0.723568,-0.994618,-0.802597,1.315893,4.600308,6.351905,3.452330,-0.379177,-0.879226,-0.249998,-0.400406,-0.413286,-0.565439,-0.589335,-0.664336,-0.639050,-0.699157,-0.646190,-0.716227,-0.614898,-0.676143,-0.596645,-0.634684,-0.568150,-0.601349,-0.490144,-0.461822,-0.330374,-0.270556,-0.158233,-0.047585,0.087408,0.233678,0.443264,0.549113,0.678387,0.810479,0.914651,0.986858,1.060776,1.023762,0.993237,0.818405,0.652899,0.420427,0.328966,0.095728,0.046502,-0.132578,0.003046,-0.248175,-0.042546,-0.320031,0.058034,-0.391961,0.236901,-0.742956,0.000000,0.000000,0.000000,0.000000,0.000000,0.000000,0.000000,0.000000,0.000000,0.000000,0.000000,0.000000,0.000000,0.000000,0.000000,0.000000,0.000000,0.000000,0.000000,0.000000,0.000000,0.000000,0.000000,0.000000,1.000000
4.316969,4.195463,-0.692637,-0.752042,-0.488648,-0.310342,-0.596095,-0.516397,-0.751585,-0.642948,-0.787541,-0.693252,-0.784940,-0.719547,-0.750665,-0.680865,-0.728705,-0.642453,-0.695366,-0.612428,-0.620384,-0.474235,-0.458649,-0.279359,-0.281000,-0.059161,-0.027937,0.219025,0.332383,0.555459,0.578460,0.818061,0.831859,1.003397,0.991544,1.060773,0.939435,0.876193,0.609989,0.466590,0.264184,0.137461,-0.038561,-0.113786,-0.115972,-0.200047,-0.202036,-0.244464,-0.169903,-0.214219,-0.157675,-0.193048,-0.120596,-0.186182,-0.125637,-0.142179,-0.065589,-0.091585,-0.058697,-0.100196,-0.082586,-0.119932,-0.110813,-0.154378,-0.164000,-0.146462,-0.185434,-0.188446,-0.263387,-0.263962,-0.318135,-0.294293,-0.378769,-0.364353,-0.411311,-0.414024,-0.411747,-0.355455,-0.405661,-0.389071,-0.415995,-0.409096,-0.417324,-0.367338,-0.262278,-0.175570,-0.136900,-0.104408,-0.049005,-0.108842,-0.008422,-0.179700,-0.180463,-0.218415,-0.135101,-0.369961,-0.318391,-0.513950,-0.429474,-0.583286,-0.485970,-0.620652,-0.508504,-0.612494,-0.467330,-0.588861,-0.518656,-0.879017,-0.832143,-0.107489,2.371098,5.028019,6.253834,3.442335,-0.377302,-0.851541,-0.273362,-0.295067,-0.449380,-0.427233,-0.613682,-0.590980,-0.646529,-0.633821,-0.648349,-0.603630,-0.629556,-0.606221,-0.598548,-0.630226,-0.556441,-0.570492,-0.480531,-0.445579,-0.351329,-0.346489,-0.210930,-0.180449,0.053333,0.099036,0.373631,0.369039,0.695215,0.648989,0.916797,0.884111,1.104526,1.005457,1.192776,0.976193,1.024029,0.695098,0.683874,0.320384,0.303398,-0.016321,0.079183,-0.210897,-0.018216,-0.323484,-0.010400,-0.412101,0.102044,-0.795748,0.000000,0.000000,0.000000,0.000000,0.000000,0.000000,0.000000,0.000000,0.000000,0.000000,0.000000,0.000000,0.000000,0.000000,0.000000,0.000000,0.000000,0.000000,0.000000,0.000000,0.000000,0.000000,0.000000,1.000000
4.033253,4.642248,-0.135621,-0.792064,-0.566225,-0.179673,-0.604003,-0.368856,-0.712300,-0.568621,-0.742662,-0.619962,-0.744737,-0.603736,-0.711560,-0.616643,-0.675217,-0.638432,-0.647576,-0.581106,-0.580174,-0.471187,-0.449069,-0.378106,-0.319350,-0.229107,-0.079336,0.037418,0.223752,0.305179,0.518017,0.593807,0.727149,0.823845,0.913759,0.951937,1.000722,0.951849,0.850611,0.703296,0.521809,0.357174,0.145165,0.035291,-0.096442,-0.137433,-0.224210,-0.212338,-0.275655,-0.215473,-0.310578,-0.251012,-0.259223,-0.173978,-0.237061,-0.148830,-0.199175,-0.114566,-0.125964,-0.063752,-0.143326,-0.084597,-0.111538,-0.056225,-0.108503,-0.086114,-0.112074,-0.147918,-0.147067,-0.200487,-0.192570,-0.259384,-0.237713,-0.329458,-0.265852,-0.347291,-0.282803,-0.374989,-0.340106,-0.375551,-0.337699,-0.421115,-0.378453,-0.420468,-0.345712,-0.368923,-0.236843,-0.188236,-0.134516,-0.095414,-0.014511,-0.022477,0.005246,-0.102196,-0.168264,-0.122136,-0.156687,-0.306775,-0.408048,-0.466451,-0.537894,-0.573583,-0.556838,-0.554850,-0.549737,-0.564502,-0.525121,-0.734025,-1.100387,-0.694139,1.610300,4.993595,6.681399,3.398084,-0.653212,-0.708862,-0.161496,-0.362387,-0.429058,-0.571631,-0.591303,-0.687187,-0.662012,-0.716598,-0.635449,-0.710931,-0.622794,-0.680254,-0.570975,-0.638481,-0.501205,-0.545247,-0.393557,-0.406506,-0.203216,-0.158074,0.063144,0.153475,0.384439,0.493121,0.720942,0.821842,0.987307,1.038044,1.140743,1.076421,1.058451,0.879133,0.738335,0.476538,0.275479,0.059242,-0.022689,-0.149294,-0.143881,-0.272589,-0.151293,-0.293928,-0.149606,-0.327111,-0.048452,-0.373716,0.162231,-0.660219,0.000000,0.000000,0.000000,0.000000,0.000000,0.000000,0.000000,0.000000,0.000000,0.000000,0.000000,0.000000,0.000000,0.000000,0.000000,0.000000,0.000000,0.000000,0.000000,0.000000,0.000000,0.000000,0.000000,1.000000
4.445216,4.446987,-0.701958,-0.598261,-0.330552,-0.217907,-0.530230,-0.465435,-0.669623,-0.602619,-0.728253,-0.648565,-0.695184,-0.647952,-0.678711,-0.624373,-0.624372,-0.586121,-0.556404,-0.497109,-0.450605,-0.364392,-0.266961,-0.122912,-0.006044,0.180982,0.310139,0.514281,0.641630,0.839545,0.907056,1.055016,1.061274,1.099912,0.983244,0.913026,0.669507,0.522710,0.210945,0.113540,-0.091519,-0.087025,-0.220850,-0.197700,-0.244795,-0.199044,-0.268521,-0.197305,-0.220157,-0.162979,-0.156297,-0.114970,-0.122152,-0.103070,-0.084381,-0.104724,-0.071951,-0.116411,-0.086819,-0.140112,-0.113986,-0.163139,-0.136567,-0.200063,-0.182744,-0.252903,-0.185425,-0.319067,-0.302527,-0.371890,-0.349734,-0.396291,-0.362690,-0.428625,-0.358051,-0.406067,-0.378860,-0.415708,-0.394564,-0.392652,-0.298159,-0.180887,-0.174087,-0.135662,-0.070280,-0.053667,-0.061485,-0.165723,-0.206640,-0.168173,-0.334076,-0.391120,-0.501925,-0.511824,-0.585703,-0.557979,-0.581896,-0.548052,-0.543143,-0.593364,-0.918072,-1.042665,0.406171,3.783149,6.503834,4.019840,-0.422195,-0.789067,-0.209713,-0.404709,-0.467738,-0.632718,-0.631308,-0.717013,-0.657337,-0.737915,-0.667923,-0.725259,-0.645916,-0.704376,-0.586280,-0.626594,-0.485418,-0.536373,-0.359470,-0.371354,-0.180081,-0.100900,0.123369,0.230466,0.468013,0.566170,0.785442,0.848012,1.000912,1.049600,1.135855,1.056529,0.962263,0.754530,0.612149,0.315680,0.204182,-0.015414,-0.041910,-0.197585,-0.150101,-0.285000,-0.173192,-0.346971,-0.123579,-0.334054,-0.030843,-0.430053,0.160940,-0.772302,0.000000,0.000000,0.000000,0.000000,0.000000,0.000000,0.000000,0.000000,0.000000,0.000000,0.000000,0.000000,0.000000,0.000000,0.000000,0.000000,0.000000,0.000000,0.000000,0.000000,0.000000,0.000000,0.000000,0.000000,0.000000,0.000000,0.000000,0.000000,0.000000,0.000000,0.000000,1.000000
4.372687,4.575347,-0.727282,-0.539956,-0.381136,-0.234069,-0.583115,-0.496672,-0.719606,-0.601260,-0.730292,-0.634228,-0.731310,-0.630275,-0.702740,-0.615649,-0.640276,-0.542787,-0.537995,-0.455378,-0.414295,-0.293069,-0.238745,-0.028905,0.060847,0.297894,0.401380,0.631807,0.715258,0.915603,0.929118,1.118082,1.066819,1.136811,0.904202,0.845182,0.559124,0.418924,0.144606,0.091578,-0.111807,-0.085871,-0.232470,-0.163792,-0.271886,-0.206330,-0.256315,-0.155789,-0.216378,-0.162319,-0.187344,-0.138422,-0.129575,-0.080796,-0.120662,-0.107927,-0.108856,-0.113646,-0.123881,-0.167232,-0.164342,-0.222054,-0.196873,-0.240934,-0.252463,-0.310729,-0.332948,-0.334868,-0.363282,-0.378197,-0.369124,-0.366514,-0.428364,-0.438638,-0.452487,-0.404267,-0.445961,-0.437355,-0.494482,-0.357158,-0.338002,-0.169912,-0.250858,-0.092582,-0.133814,-0.022367,-0.159164,-0.195934,-0.263404,-0.135375,-0.389234,-0.352254,-0.517456,-0.467039,-0.620100,-0.512199,-0.580004,-0.525141,-0.584193,-0.481406,-0.704473,-0.956185,-0.676145,1.282739,4.268056,6.154641,4.137085,0.062307,-0.913637,-0.364909,-0.294374,-0.493717,-0.499152,-0.677451,-0.615073,-0.699534,-0.634623,-0.686669,-0.665760,-0.667052,-0.644074,-0.608432,-0.615805,-0.573289,-0.543032,-0.462074,-0.445443,-0.344103,-0.286577,-0.085626,-0.052998,0.178920,0.259750,0.489623,0.528200,0.781574,0.777958,0.949310,0.909110,1.038954,0.848444,0.872743,0.622642,0.557512,0.234828,0.228574,-0.047191,0.033761,-0.196780,-0.055163,-0.263491,-0.073733,-0.323746,-0.007611,-0.355415,0.192753,-0.659599,0.000000,0.000000,0.000000,0.000000,0.000000,0.000000,0.000000,0.000000,0.000000,0.000000,0.000000,0.000000,0.000000,0.000000,0.000000,0.000000,0.000000,0.000000,0.000000,0.000000,0.000000,0.000000,0.000000,0.000000,0.000000,0.000000,0.000000,0.000000,0.000000,0.000000,1.000000
4.137738,5.031614,0.024788,-0.784375,-0.613234,-0.187571,-0.648860,-0.435924,-0.807477,-0.584189,-0.816057,-0.619136,-0.791602,-0.658328,-0.768432,-0.642585,-0.706353,-0.615062,-0.670116,-0.547344,-0.556598,-0.450294,-0.437867,-0.295933,-0.180015,-0.058358,0.082624,0.256282,0.396553,0.528961,0.688334,0.786372,0.857915,0.921787,0.948818,0.869778,0.779403,0.648912,0.459357,0.264546,0.118328,-0.011985,-0.090841,-0.150151,-0.198134,-0.196534,-0.245125,-0.218772,-0.235308,-0.162267,-0.191681,-0.105167,-0.156736,-0.074489,-0.142508,-0.068115,-0.126245,-0.055196,-0.153554,-0.037811,-0.187955,-0.136826,-0.191738,-0.169555,-0.259412,-0.226390,-0.281048,-0.273892,-0.323922,-0.317396,-0.350332,-0.369490,-0.351120,-0.385304,-0.362305,-0.393335,-0.367303,-0.396568,-0.225058,-0.184717,-0.110004,-0.135462,-0.026078,-0.051420,0.016419,-0.156008,-0.148147,-0.174228,-0.164919,-0.367738,-0.368642,-0.477224,-0.481193,-0.586021,-0.549021,-0.567096,-0.508134,-0.545880,-0.516959,-0.668117,-0.952080,-0.756134,0.645889,3.675879,6.044450,4.721571,0.443418,-0.951270,-0.430379,-0.262947,-0.463688,-0.408104,-0.629314,-0.606053,-0.688188,-0.646428,-0.652949,-0.657128,-0.650032,-0.647300,-0.617527,-0.614280,-0.567634,-0.543667,-0.460155,-0.456611,-0.319283,-0.304107,-0.145449,-0.057643,0.153362,0.227232,0.489661,0.526665,0.775530,0.775285,0.994625,0.976434,1.129270,0.974796,1.000998,0.732101,0.684727,0.362972,0.288698,-0.024996,-0.004356,-0.208226,-0.067440,-0.292844,-0.115242,-0.351076,-0.065132,-0.392235,0.120097,-0.700006,0.000000,0.000000,0.000000,0.000000,0.000000,0.000000,0.000000,0.000000,0.000000,0.000000,0.000000,0.000000,0.000000,0.000000,0.000000,0.000000,0.000000,0.000000,0.000000,0.000000,0.000000,0.000000,0.000000,0.000000,0.000000,0.000000,0.000000,0.000000,0.000000,0.000000,0.000000,1.000000
4.000501,5.079887,0.155943,-0.765849,-0.595222,-0.159963,-0.577398,-0.333293,-0.713691,-0.546223,-0.758625,-0.598245,-0.715697,-0.614869,-0.707635,-0.610832,-0.672211,-0.582642,-0.621115,-0.518699,-0.514100,-0.436199,-0.378730,-0.288174,-0.212038,-0.054129,0.079052,0.222111,0.403838,0.518960,0.680580,0.767834,0.891957,0.969837,1.028767,0.985743,0.910364,0.764746,0.602140,0.416720,0.210530,0.042743,-0.097646,-0.137727,-0.181791,-0.197708,-0.257539,-0.224358,-0.262962,-0.189016,-0.223633,-0.156369,-0.191004,-0.116632,-0.130377,-0.076765,-0.153026,-0.098403,-0.108522,-0.090549,-0.151154,-0.114146,-0.156586,-0.158519,-0.219946,-0.224330,-0.240823,-0.272143,-0.266470,-0.315397,-0.276937,-0.343396,-0.302910,-0.394882,-0.320283,-0.376413,-0.321469,-0.413959,-0.332971,-0.424680,-0.353048,-0.393243,-0.275757,-0.214334,-0.110909,-0.164394,-0.036510,-0.072200,-0.008602,-0.056929,-0.149883,-0.210621,-0.137597,-0.222697,-0.322408,-0.387089,-0.448231,-0.528206,-0.542477,-0.531538,-0.541944,-0.534707,-0.538862,-0.561188,-0.530491,-0.791294,-1.047533,-0.547767,1.466526,4.432532,6.194208,4.144388,-0.040579,-0.887815,-0.373601,-0.272560,-0.427873,-0.466539,-0.558739,-0.669149,-0.671529,-0.715902,-0.655629,-0.714246,-0.647112,-0.715943,-0.629911,-0.670156,-0.586394,-0.626284,-0.523064,-0.569535,-0.422359,-0.452212,-0.315431,-0.251996,-0.109788,-0.045412,0.174065,0.260251,0.486002,0.578507,0.737864,0.864717,0.983306,1.010158,1.083275,1.043971,0.996199,0.844184,0.706749,0.467947,0.346121,0.114044,0.042730,-0.179552,-0.080596,-0.321223,-0.122304,-0.456386,0.042758,-0.815459,0.000000,0.000000,0.000000,0.000000,0.000000,0.000000,0.000000,0.000000,0.000000,0.000000,0.000000,0.000000,0.000000,0.000000,0.000000,0.000000,0.000000,0.000000,0.000000,0.000000,0.000000,0.000000,0.000000,0.000000,0.000000,1.000000
4.163786,5.301100,0.194134,-0.679013,-0.510377,-0.075221,-0.445055,-0.310097,-0.550131,-0.525973,-0.666860,-0.589817,-0.649587,-0.589961,-0.639045,-0.592538,-0.625275,-0.550204,-0.579441,-0.509007,-0.517202,-0.452223,-0.425991,-0.330200,-0.326021,-0.140935,-0.116576,0.060109,0.155633,0.368589,0.461232,0.694418,0.715769,0.976270,0.972873,1.134151,1.075431,1.183709,1.002781,1.000686,0.722490,0.636519,0.351488,0.289010,0.032724,0.001641,-0.130084,-0.106357,-0.225328,-0.169343,-0.211930,-0.179190,-0.222826,-0.146866,-0.143178,-0.146418,-0.105368,-0.116481,-0.071472,-0.108527,-0.092599,-0.101574,-0.052956,-0.104152,-0.096694,-0.131683,-0.114629,-0.160747,-0.191026,-0.248511,-0.240601,-0.248064,-0.296659,-0.303021,-0.348901,-0.330700,-0.368497,-0.373810,-0.416248,-0.360651,-0.423942,-0.338331,-0.410052,-0.298847,-0.310145,-0.112545,-0.211567,-0.040555,-0.115793,0.027209,-0.077155,-0.094343,-0.271765,-0.126238,-0.254394,-0.333504,-0.459809,-0.456966,-0.561448,-0.532988,-0.619643,-0.577894,-0.602083,-0.562835,-0.587893,-0.546301,-0.899512,-1.066106,-0.451934,1.807312,4.788484,6.078647,3.259407,-0.537538,-0.738466,-0.300304,-0.340399,-0.513357,-0.529766,-0.683114,-0.687941,-0.675270,-0.693255,-0.705394,-0.730448,-0.688006,-0.737428,-0.686430,-0.700353,-0.655531,-0.650174,-0.539312,-0.561265,-0.455435,-0.462055,-0.318798,-0.256549,-0.055473,-0.033261,0.212913,0.303446,0.549062,0.572981,0.780252,0.792836,0.933704,0.875176,0.977163,0.825480,0.751458,0.457972,0.367556,0.097933,0.007306,-0.207834,-0.111443,-0.310201,-0.155477,-0.410787,-0.183439,-0.459071,0.012194,-0.793037,0.000000,0.000000,0.000000,0.000000,0.000000,0.000000,0.000000,0.000000,0.000000,0.000000,0.000000,0.000000,0.000000,0.000000,0.000000,0.000000,0.000000,0.000000,0.000000,0.000000,0.000000,0.000000,0.000000,0.000000,1.000000
4.437199,4.766573,-0.486540,-0.586789,-0.431090,-0.122797,-0.570908,-0.376616,-0.718887,-0.583225,-0.711420,-0.592941,-0.731796,-0.643998,-0.712586,-0.650213,-0.713283,-0.616490,-0.675075,-0.574146,-0.553909,-0.473756,-0.465819,-0.370716,-0.327356,-0.163452,-0.047624,0.082028,0.224074,0.438376,0.586577,0.741623,0.832264,0.985461,1.006030,1.086329,1.054965,1.060452,0.838081,0.687912,0.416592,0.307819,0.023057,-0.031080,-0.141651,-0.121171,-0.220822,-0.186307,-0.312200,-0.171106,-0.250708,-0.161276,-0.203289,-0.123348,-0.143440,-0.075244,-0.150832,-0.111583,-0.160228,-0.085821,-0.122035,-0.115843,-0.143994,-0.166869,-0.188877,-0.188035,-0.194464,-0.262738,-0.268859,-0.286485,-0.322241,-0.340404,-0.370121,-0.377826,-0.385155,-0.417498,-0.427763,-0.423932,-0.428588,-0.432694,-0.438035,-0.352675,-0.336413,-0.187462,-0.198279,-0.095052,-0.084973,-0.047450,-0.103426,-0.100145,-0.262007,-0.115044,-0.288939,-0.288738,-0.478324,-0.434156,-0.629036,-0.495255,-0.593067,-0.500788,-0.586542,-0.521877,-0.625158,-0.534139,-0.877994,-0.905826,-0.132271,2.347542,5.075968,5.996784,2.820126,-0.595201,-0.850335,-0.270112,-0.402093,-0.468910,-0.521393,-0.598188,-0.622677,-0.665542,-0.619441,-0.694439,-0.622671,-0.674660,-0.679971,-0.615992,-0.568150,-0.563039,-0.549052,-0.493929,-0.444745,-0.314422,-0.309261,-0.084773,-0.031842,0.171807,0.195328,0.455813,0.528725,0.718046,0.722406,0.939180,0.921934,1.055456,0.895495,0.952895,0.684233,0.654243,0.342197,0.324518,0.027226,0.078719,-0.144181,-0.037937,-0.238693,-0.034615,-0.285116,0.007996,-0.350367,0.182288,-0.693565,0.000000,0.000000,0.000000,0.000000,0.000000,0.000000,0.000000,0.000000,0.000000,0.000000,0.000000,0.000000,0.000000,0.000000,0.000000,0.000000,0.000000,0.000000,0.000000,0.000000,0.000000,0.000000,0.000000,0.000000,0.000000,0.000000,1.000000
4.030028,3.995113,-0.623101,-0.798501,-0.538208,-0.284228,-0.652974,-0.454257,-0.752331,-0.583032,-0.811308,-0.601344,-0.819198,-0.628552,-0.780177,-0.692318,-0.738253,-0.583136,-0.668479,-0.570916,-0.601860,-0.479867,-0.423642,-0.341500,-0.214023,-0.061423,0.046605,0.169480,0.315230,0.506340,0.592566,0.706097,0.807158,0.917531,0.939037,0.915660,0.841886,0.729391,0.545595,0.397490,0.202692,0.087447,-0.069462,-0.081851,-0.207257,-0.166480,-0.237691,-0.174132,-0.252784,-0.156696,-0.232210,-0.140990,-0.204594,-0.093459,-0.178049,-0.083153,-0.157110,-0.056056,-0.120014,-0.039748,-0.132292,-0.037689,-0.139667,-0.060103,-0.104244,-0.085285,-0.123786,-0.144683,-0.210551,-0.195033,-0.183031,-0.239496,-0.256432,-0.283386,-0.282401,-0.320129,-0.278067,-0.324014,-0.297318,-0.342045,-0.317976,-0.306341,-0.134156,-0.076970,-0.057267,0.009512,0.029547,0.049634,-0.010477,-0.092793,-0.151984,-0.052871,-0.196355,-0.254007,-0.417887,-0.390742,-0.526448,-0.514652,-0.604511,-0.502043,-0.590270,-0.508812,-0.597290,-0.506519,-0.956376,-0.893423,-0.018107,2.657122,5.354579,6.356977,3.165456,-0.565357,-1.029461,-0.272568,-0.368525,-0.451459,-0.494268,-0.653253,-0.669172,-0.667435,-0.660638,-0.679908,-0.676033,-0.717079,-0.648469,-0.674520,-0.607276,-0.621700,-0.541824,-0.541470,-0.465826,-0.447403,-0.318655,-0.212003,-0.101861,0.054838,0.236844,0.411845,0.552583,0.718159,0.813976,0.988290,1.015889,1.156443,1.032664,1.035473,0.795028,0.705012,0.353020,0.289560,-0.034608,-0.002988,-0.240159,-0.084992,-0.331026,-0.122222,-0.406713,-0.064643,-0.459527,0.107045,-0.729504,0.000000,0.000000,0.000000,0.000000,0.000000,0.000000,0.000000,0.000000,0.000000,0.000000,0.000000,0.000000,0.000000,0.000000,0.000000,0.000000,0.000000,0.000000,0.000000,0.000000,0.000000,0.000000,0.000000,0.000000,0.000000,0.000000,1.000000
4.165239,4.269874,-0.506374,-0.883443,-0.518205,-0.185144,-0.587520,-0.357964,-0.739042,-0.567954,-0.751726,-0.569342,-0.752842,-0.590641,-0.782423,-0.579070,-0.733076,-0.546202,-0.677479,-0.489328,-0.595804,-0.419361,-0.503855,-0.287527,-0.277310,-0.076763,-0.024805,0.246925,0.323783,0.555686,0.622649,0.812022,0.884442,1.014517,1.048987,1.045465,0.934458,0.825219,0.614300,0.405424,0.201184,0.035747,-0.097611,-0.155683,-0.195438,-0.224218,-0.257935,-0.263479,-0.253938,-0.235739,-0.228031,-0.177061,-0.193027,-0.136640,-0.194682,-0.134765,-0.159883,-0.096996,-0.153066,-0.080082,-0.172325,-0.105331,-0.203156,-0.123347,-0.255846,-0.179492,-0.298397,-0.237868,-0.329232,-0.254173,-0.379793,-0.281852,-0.372359,-0.299013,-0.393163,-0.313687,-0.388121,-0.294443,-0.249210,-0.138725,-0.144256,-0.033423,-0.044808,0.004582,-0.072431,-0.153512,-0.158378,-0.122047,-0.260039,-0.367538,-0.461643,-0.493826,-0.555822,-0.540266,-0.565675,-0.527155,-0.553297,-0.520003,-0.696856,-1.032856,-0.767466,1.366088,4.607406,6.439296,3.393106,-0.645586,-0.803006,-0.247383,-0.360507,-0.438181,-0.545054,-0.643870,-0.655594,-0.645306,-0.724219,-0.664855,-0.714111,-0.652274,-0.679492,-0.586422,-0.643680,-0.522489,-0.565057,-0.444826,-0.447936,-0.267143,-0.225402,0.000980,0.105640,0.352499,0.475299,0.681810,0.780011,0.929263,0.992856,1.108144,1.095747,1.100856,0.950370,0.786237,0.541003,0.343437,0.108456,0.015499,-0.140387,-0.134601,-0.257657,-0.178142,-0.307424,-0.140450,-0.332209,-0.043302,-0.380042,0.159610,-0.725199,0.000000,0.000000,0.000000,0.000000,0.000000,0.000000,0.000000,0.000000,0.000000,0.000000,0.000000,0.000000,0.000000,0.000000,0.000000,0.000000,0.000000,0.000000,0.000000,0.000000,0.000000,0.000000,0.000000,0.000000,0.000000,0.000000,0.000000,0.000000,0.000000,0.000000,0.000000,0.000000,1.000000
4.193194,3.907558,-0.885325,-0.555112,-0.383993,-0.193220,-0.518557,-0.406616,-0.693298,-0.533831,-0.679886,-0.612183,-0.689347,-0.610469,-0.670328,-0.582601,-0.601517,-0.552039,-0.535684,-0.478891,-0.457454,-0.367163,-0.282572,-0.152485,-0.020298,0.168235,0.322023,0.526541,0.641433,0.822148,0.880302,1.029455,1.051759,1.129444,1.040286,0.987927,0.728492,0.593639,0.292949,0.181356,-0.030426,-0.049258,-0.185198,-0.148600,-0.243043,-0.174772,-0.233464,-0.160942,-0.192390,-0.123776,-0.143526,-0.124652,-0.117078,-0.059263,-0.066263,-0.084590,-0.114650,-0.130027,-0.119581,-0.172499,-0.152721,-0.212646,-0.222353,-0.260029,-0.272018,-0.346944,-0.317893,-0.375962,-0.329394,-0.376422,-0.370135,-0.408296,-0.299746,-0.260435,-0.109264,-0.150778,-0.014219,-0.032066,0.026240,-0.081947,-0.182252,-0.189461,-0.162750,-0.281088,-0.357377,-0.445720,-0.507475,-0.573327,-0.582374,-0.584159,-0.537999,-0.584830,-0.537375,-0.694604,-1.095424,-0.903924,0.946482,4.399179,6.404074,3.769879,-0.473040,-0.808353,-0.286536,-0.407814,-0.527327,-0.577574,-0.700894,-0.719856,-0.704645,-0.728292,-0.712563,-0.754438,-0.696223,-0.695744,-0.619741,-0.672504,-0.588837,-0.569308,-0.410164,-0.415673,-0.221748,-0.173151,0.092120,0.159260,0.423830,0.470898,0.741607,0.736452,0.929827,0.913995,1.012637,0.883726,0.837404,0.557336,0.449699,0.141279,0.050426,-0.156605,-0.127001,-0.253225,-0.190559,-0.313035,-0.163452,-0.318916,-0.140429,-0.340478,-0.043157,-0.403900,0.129365,-0.707004,0.000000,0.000000,0.000000,0.000000,0.000000,0.000000,0.000000,0.000000,0.000000,0.000000,0.000000,0.000000,0.000000,0.000000,0.000000,0.000000,0.000000,0.000000,0.000000,0.000000,0.000000,0.000000,0.000000,0.000000,0.000000,0.000000,0.000000,0.000000,0.000000,0.000000,0.000000,0.000000,0.000000,0.000000,0.000000,0.000000,0.000000,1.000000
4.558618,4.403400,-0.839432,-0.560993,-0.422219,-0.247847,-0.626208,-0.459277,-0.783012,-0.626797,-0.770890,-0.648051,-0.769120,-0.683774,-0.745678,-0.628401,-0.660322,-0.607241,-0.625889,-0.504426,-0.437027,-0.344581,-0.240942,-0.093609,0.085290,0.255178,0.432217,0.583803,0.762989,0.870696,0.959153,1.062503,1.051581,1.043324,0.877923,0.715386,0.469685,0.287246,0.039332,-0.030144,-0.165372,-0.129055,-0.242293,-0.184928,-0.235385,-0.167101,-0.238954,-0.155387,-0.194483,-0.128970,-0.175662,-0.085356,-0.134445,-0.082476,-0.090025,-0.075070,-0.121360,-0.150316,-0.160943,-0.181937,-0.180876,-0.217650,-0.198774,-0.261456,-0.262177,-0.298070,-0.268332,-0.344723,-0.323264,-0.416020,-0.339928,-0.387522,-0.313060,-0.403711,-0.315833,-0.360153,-0.167826,-0.134233,-0.125060,-0.072773,-0.023889,-0.049648,-0.010980,-0.163540,-0.224424,-0.132514,-0.219271,-0.353541,-0.375420,-0.452118,-0.532819,-0.546484,-0.531621,-0.522888,-0.524065,-0.506051,-0.510334,-0.640502,-1.009073,-0.694391,1.251949,4.626778,6.226103,3.371826,-0.482520,-0.761057,-0.215493,-0.405096,-0.454330,-0.571384,-0.616789,-0.665059,-0.655939,-0.685539,-0.608557,-0.688606,-0.611922,-0.676742,-0.580335,-0.639570,-0.481359,-0.591546,-0.416674,-0.404306,-0.209960,-0.196273,0.055536,0.109916,0.385439,0.456871,0.655441,0.704046,0.878475,0.920709,0.979976,0.916456,0.881437,0.703583,0.576415,0.335224,0.171281,0.022853,0.005729,-0.163095,-0.100015,-0.275782,-0.120181,-0.255621,-0.088736,-0.326380,0.026310,-0.379022,0.214691,-0.737068,0.000000,0.000000,0.000000,0.000000,0.000000,0.000000,0.000000,0.000000,0.000000,0.000000,0.000000,0.000000,0.000000,0.000000,0.000000,0.000000,0.000000,0.000000,0.000000,0.000000,0.000000,0.000000,0.000000,0.000000,0.000000,0.000000,0.000000,0.000000,0.000000,0.000000,0.000000,0.000000,0.000000,1.000000
4.169319,4.506980,-0.415510,-0.690979,-0.388494,-0.270724,-0.556279,-0.479108,-0.694794,-0.605686,-0.721039,-0.646720,-0.668976,-0.646974,-0.671186,-0.641753,-0.638232,-0.612209,-0.545659,-0.550454,-0.499747,-0.379727,-0.293146,-0.175975,-0.043596,0.127331,0.274179,0.480184,0.553399,0.730290,0.776001,0.953726,0.903781,0.966448,0.826851,0.777760,0.538716,0.424241,0.136890,0.080924,-0.044697,-0.098603,-0.172285,-0.200231,-0.228613,-0.169308,-0.206746,-0.208928,-0.164300,-0.160992,-0.138918,-0.144056,-0.106876,-0.152264,-0.066398,-0.107019,-0.042970,-0.133296,-0.054184,-0.158543,-0.070252,-0.169357,-0.118125,-0.213317,-0.180813,-0.267246,-0.237009,-0.313191,-0.275737,-0.329758,-0.337784,-0.342933,-0.370386,-0.373555,-0.346107,-0.387790,-0.368140,-0.297848,-0.167741,-0.116088,-0.103157,-0.017703,-0.041677,0.010744,-0.051111,-0.150573,-0.178226,-0.098290,-0.227968,-0.349239,-0.407918,-0.466743,-0.525068,-0.571386,-0.525472,-0.589426,-0.505128,-0.598913,-0.497464,-0.782076,-0.975452,-0.665592,1.696014,4.824576,6.408380,3.218091,-0.708056,-0.784831,-0.194882,-0.436279,-0.462921,-0.615123,-0.637563,-0.706213,-0.689547,-0.726397,-0.671608,-0.698559,-0.677775,-0.699570,-0.645156,-0.658910,-0.613523,-0.574088,-0.477213,-0.447082,-0.347620,-0.258916,-0.159383,-0.022013,0.122770,0.308814,0.445336,0.603392,0.712877,0.815755,0.905631,0.984369,1.060206,0.967309,0.950414,0.781288,0.661868,0.374627,0.345008,0.021170,0.042554,-0.219388,-0.064371,-0.353816,-0.096774,-0.410985,-0.044622,-0.485395,0.113198,-0.804876,0.000000,0.000000,0.000000,0.000000,0.000000,0.000000,0.000000,0.000000,0.000000,0.000000,0.000000,0.000000,0.000000,0.000000,0.000000,0.000000,0.000000,0.000000,0.000000,0.000000,0.000000,0.000000,0.000000,0.000000,0.000000,0.000000,0.000000,0.000000,0.000000,0.000000,0.000000,1.000000
4.162934,4.691422,-0.397056,-0.704839,-0.349406,-0.202383,-0.527392,-0.420653,-0.676209,-0.545187,-0.715980,-0.584849,-0.696582,-0.563442,-0.688896,-0.575921,-0.659216,-0.539284,-0.626853,-0.476565,-0.499369,-0.351947,-0.380769,-0.182791,-0.197912,0.027766,0.067392,0.332503,0.387590,0.614083,0.657584,0.822237,0.850673,0.981387,1.015587,1.000588,0.922673,0.839189,0.673337,0.458576,0.349292,0.136127,0.035301,-0.101934,-0.098148,-0.209934,-0.171395,-0.230758,-0.179212,-0.219426,-0.175334,-0.194226,-0.167178,-0.183650,-0.136080,-0.141771,-0.130112,-0.117462,-0.111373,-0.104648,-0.110820,-0.114266,-0.134464,-0.119871,-0.153176,-0.137750,-0.186719,-0.172621,-0.206445,-0.216923,-0.284102,-0.285708,-0.336207,-0.310594,-0.342561,-0.341103,-0.387320,-0.350314,-0.354335,-0.288382,-0.185142,-0.143753,-0.096114,-0.083103,-0.028483,-0.046677,-0.006941,-0.182742,-0.154549,-0.201553,-0.201285,-0.413917,-0.382563,-0.539972,-0.485783,-0.604663,-0.476964,-0.608371,-0.528008,-0.640005,-0.512342,-0.900517,-1.076978,-0.641259,1.835568,5.146257,6.253528,2.733266,-0.835673,-0.838371,-0.317991,-0.340272,-0.524562,-0.522343,-0.702268,-0.656905,-0.743847,-0.702240,-0.745517,-0.718818,-0.729648,-0.711008,-0.723456,-0.670429,-0.657231,-0.590467,-0.528878,-0.494635,-0.381878,-0.332616,-0.158988,-0.077982,0.148590,0.256049,0.520936,0.537204,0.766307,0.792323,0.984863,0.935539,1.068749,0.878949,0.906967,0.636221,0.595763,0.229419,0.222155,-0.082264,-0.013240,-0.262511,-0.123359,-0.346654,-0.142913,-0.413905,-0.098828,-0.440428,0.096911,-0.730174,0.000000,0.000000,0.000000,0.000000,0.000000,0.000000,0.000000,0.000000,0.000000,0.000000,0.000000,0.000000,0.000000,0.000000,0.000000,0.000000,0.000000,0.000000,0.000000,0.000000,0.000000,0.000000,0.000000,0.000000,0.000000,0.000000,0.000000,0.000000,0.000000,1.000000
4.404292,4.283473,-0.781276,-0.801839,-0.573751,-0.189361,-0.666995,-0.432445,-0.813105,-0.612980,-0.845099,-0.675937,-0.840319,-0.700429,-0.822854,-0.694446,-0.813949,-0.665530,-0.742547,-0.595410,-0.609944,-0.497902,-0.467374,-0.336223,-0.249884,-0.080764,0.055992,0.256072,0.434872,0.562429,0.680743,0.826877,0.909817,0.985992,1.003582,0.953831,0.844412,0.721800,0.531355,0.322210,0.130982,0.006863,-0.131028,-0.169993,-0.267310,-0.239623,-0.317181,-0.270707,-0.333646,-0.215556,-0.286229,-0.157349,-0.236980,-0.166293,-0.201240,-0.129268,-0.186833,-0.103157,-0.163507,-0.083732,-0.143133,-0.068473,-0.186892,-0.147925,-0.263289,-0.191570,-0.253535,-0.238974,-0.291438,-0.311608,-0.360861,-0.338167,-0.386353,-0.368615,-0.387457,-0.406851,-0.390133,-0.403684,-0.412339,-0.288189,-0.203869,-0.182020,-0.087536,-0.079075,-0.076300,-0.062530,-0.132230,-0.243763,-0.202640,-0.181014,-0.306104,-0.376057,-0.482357,-0.482610,-0.574754,-0.525994,-0.585155,-0.493995,-0.634269,-0.473815,-0.795187,-0.981266,-0.708632,1.447088,4.552842,6.297100,3.582451,-0.374787,-0.850823,-0.173089,-0.335542,-0.409679,-0.514022,-0.566678,-0.623172,-0.585623,-0.616772,-0.604582,-0.618156,-0.594613,-0.603523,-0.571068,-0.541899,-0.520940,-0.499380,-0.430839,-0.366601,-0.306819,-0.175933,-0.087117,0.064621,0.186137,0.369136,0.493561,0.680818,0.802901,0.884896,1.020244,1.056083,1.113818,1.038039,0.979377,0.769519,0.677340,0.362073,0.279929,0.058861,0.066453,-0.112250,0.061422,-0.172872,0.048189,-0.217146,0.112529,-0.294053,0.323474,-0.595865,0.000000,0.000000,0.000000,0.000000,0.000000,0.000000,0.000000,0.000000,0.000000,0.000000,0.000000,0.000000,0.000000,0.000000,0.000000,0.000000,0.000000,0.000000,0.000000,0.000000,0.000000,0.000000,0.000000,0.000000,0.000000,0.000000,0.000000,0.000000,0.000000,0.000000,1.000000
4.248106,4.554801,-0.544873,-0.855184,-0.494781,-0.302631,-0.659254,-0.531642,-0.794195,-0.672016,-0.806470,-0.675798,-0.815022,-0.687998,-0.798512,-0.678984,-0.772280,-0.623057,-0.713982,-0.584760,-0.625937,-0.451994,-0.498308,-0.267342,-0.271398,-0.027207,0.007440,0.279416,0.326017,0.593417,0.651933,0.809327,0.871866,0.994470,0.976336,0.990777,0.851968,0.728787,0.544083,0.327778,0.121898,0.012571,-0.111194,-0.163962,-0.142746,-0.198278,-0.189048,-0.207688,-0.179788,-0.200418,-0.125976,-0.146929,-0.081981,-0.126214,-0.064214,-0.098564,-0.052146,-0.113721,-0.084555,-0.104601,-0.126068,-0.153419,-0.139806,-0.173947,-0.203848,-0.217959,-0.245056,-0.280203,-0.287119,-0.330803,-0.314197,-0.311068,-0.351875,-0.353042,-0.373140,-0.352248,-0.334771,-0.265153,-0.181894,-0.118662,-0.103718,-0.045581,-0.043737,0.031663,-0.024005,-0.141566,-0.157051,-0.083473,-0.198445,-0.323092,-0.315803,-0.463314,-0.437496,-0.552149,-0.478678,-0.539400,-0.433301,-0.580682,-0.461425,-0.725997,-0.879007,-0.597822,1.377596,4.275316,6.183595,4.224898,0.260691,-0.907936,-0.236794,-0.301273,-0.430051,-0.499631,-0.589168,-0.576815,-0.615144,-0.642119,-0.667821,-0.654811,-0.688307,-0.659383,-0.642708,-0.614223,-0.622663,-0.544896,-0.526117,-0.439277,-0.427798,-0.333409,-0.214412,-0.090553,0.061100,0.188636,0.369895,0.479702,0.668799,0.713474,0.888289,0.906406,1.050551,0.917966,0.936833,0.688510,0.643094,0.331536,0.312896,-0.025893,0.035564,-0.253312,-0.076676,-0.334045,-0.072028,-0.427005,-0.011675,-0.435156,0.149473,-0.780710,0.000000,0.000000,0.000000,0.000000,0.000000,0.000000,0.000000,0.000000,0.000000,0.000000,0.000000,0.000000,0.000000,0.000000,0.000000,0.000000,0.000000,0.000000,0.000000,0.000000,0.000000,0.000000,0.000000,0.000000,0.000000,0.000000,0.000000,0.000000,0.000000,0.000000,0.000000,1.000000
3.923963,4.950330,0.363449,-0.632613,-0.380785,-0.070768,-0.465698,-0.305272,-0.592832,-0.409621,-0.601033,-0.480014,-0.645517,-0.502561,-0.656173,-0.517736,-0.612084,-0.476359,-0.589428,-0.421500,-0.494934,-0.326925,-0.395583,-0.237395,-0.201093,-0.011770,0.058067,0.249387,0.349092,0.525086,0.633033,0.753481,0.839544,0.940181,0.998746,0.972324,0.899918,0.770434,0.624653,0.441581,0.304297,0.112647,0.021916,-0.096459,-0.110386,-0.157944,-0.133879,-0.205733,-0.143207,-0.130062,-0.129626,-0.127140,-0.097261,-0.060911,-0.069505,-0.032094,-0.035691,-0.004163,-0.035361,0.000542,-0.071895,-0.035434,-0.083226,-0.055927,-0.129254,-0.084601,-0.148887,-0.130888,-0.230668,-0.215962,-0.266483,-0.255159,-0.309960,-0.286239,-0.292738,-0.300567,-0.323083,-0.319581,-0.228576,-0.164890,-0.108010,-0.115876,-0.008853,-0.059470,0.028329,-0.125867,-0.128973,-0.174319,-0.115025,-0.337259,-0.387097,-0.501626,-0.471920,-0.621944,-0.501466,-0.623667,-0.526058,-0.646822,-0.523569,-0.845696,-1.087870,-0.767335,1.505241,4.873920,6.337951,3.318820,-0.789339,-0.742449,-0.253963,-0.434095,-0.529849,-0.631626,-0.739484,-0.731422,-0.794940,-0.768468,-0.799206,-0.776081,-0.803866,-0.752382,-0.719987,-0.690406,-0.653219,-0.603782,-0.526972,-0.443171,-0.320497,-0.229475,-0.023998,0.090904,0.343999,0.448440,0.664279,0.717764,0.934659,0.862391,0.959617,0.843918,0.791224,0.466288,0.370749,0.013090,-0.004273,-0.261707,-0.190216,-0.411826,-0.275564,-0.441309,-0.263461,-0.447161,-0.195731,-0.449044,-0.165633,-0.484496,0.039979,-0.785281,0.000000,0.000000,0.000000,0.000000,0.000000,0.000000,0.000000,0.000000,0.000000,0.000000,0.000000,0.000000,0.000000,0.000000,0.000000,0.000000,0.000000,0.000000,0.000000,0.000000,0.000000,0.000000,0.000000,0.000000,0.000000,0.000000,0.000000,0.000000,0.000000,0.000000,0.000000,1.000000
4.253203,4.453893,-0.642008,-0.482413,-0.244253,-0.124033,-0.458519,-0.350436,-0.642353,-0.479673,-0.681490,-0.532921,-0.676689,-0.548939,-0.673889,-0.540412,-0.590035,-0.481769,-0.523295,-0.405529,-0.402026,-0.259357,-0.201652,-0.059486,0.077362,0.247693,0.428776,0.599297,0.745908,0.864828,1.010457,1.031843,1.041902,1.025197,0.908521,0.683508,0.499348,0.250396,0.111843,-0.023149,-0.087416,-0.164676,-0.192266,-0.189293,-0.196428,-0.179384,-0.160879,-0.138402,-0.179220,-0.108949,-0.114299,-0.074257,-0.117406,-0.042856,-0.092098,-0.067880,-0.149262,-0.105946,-0.155465,-0.129283,-0.182670,-0.151011,-0.213823,-0.210780,-0.227428,-0.255613,-0.275286,-0.289769,-0.313670,-0.372802,-0.315059,-0.373188,-0.339296,-0.393849,-0.288834,-0.264014,-0.097379,-0.149940,-0.039843,-0.077339,0.048865,-0.092897,-0.128301,-0.206189,-0.085534,-0.296692,-0.319905,-0.488668,-0.459806,-0.605789,-0.518803,-0.629241,-0.529798,-0.601734,-0.539456,-0.804774,-1.105654,-0.736534,1.540349,4.789961,6.287735,3.083573,-0.864892,-0.615518,-0.280662,-0.418575,-0.562386,-0.655808,-0.738855,-0.723453,-0.751062,-0.716087,-0.757955,-0.732929,-0.698204,-0.673299,-0.654150,-0.627815,-0.558688,-0.541625,-0.385739,-0.310853,-0.114579,-0.060825,0.185964,0.301263,0.574023,0.613740,0.855101,0.886307,1.026765,0.919942,0.980973,0.715377,0.644193,0.320111,0.199821,-0.112776,-0.115889,-0.286455,-0.208860,-0.396556,-0.266319,-0.375567,-0.232914,-0.415690,-0.161940,-0.369853,-0.073237,-0.415836,0.098326,-0.779149,0.000000,0.000000,0.000000,0.000000,0.000000,0.000000,0.000000,0.000000,0.000000,0.000000,0.000000,0.000000,0.000000,0.000000,0.000000,0.000000,0.000000,0.000000,0.000000,0.000000,0.000000,0.000000,0.000000,0.000000,0.000000,0.000000,0.000000,0.000000,0.000000,0.000000,0.000000,0.000000,0.000000,0.000000,0.000000,1.000000
4.394223,4.632806,-0.751161,-0.522910,-0.367914,-0.208169,-0.596467,-0.488595,-0.769825,-0.593229,-0.772930,-0.600712,-0.762623,-0.633777,-0.705334,-0.575374,-0.651958,-0.539911,-0.555100,-0.457505,-0.395406,-0.231444,-0.121654,0.025987,0.169697,0.386554,0.566019,0.723361,0.849105,1.010802,1.047323,1.068576,1.014294,0.898539,0.682743,0.510670,0.231825,0.064541,-0.123227,-0.130447,-0.231214,-0.231356,-0.316171,-0.210895,-0.286717,-0.231511,-0.258489,-0.144482,-0.215338,-0.108378,-0.186382,-0.121413,-0.159171,-0.098647,-0.167530,-0.107980,-0.166353,-0.127244,-0.164438,-0.150583,-0.235177,-0.225867,-0.265906,-0.271372,-0.312719,-0.302600,-0.353444,-0.350369,-0.392209,-0.385341,-0.351704,-0.385058,-0.361424,-0.339373,-0.238899,-0.161419,-0.119671,-0.088691,-0.097917,-0.020103,-0.048014,-0.194092,-0.236747,-0.133355,-0.302286,-0.377463,-0.489332,-0.496417,-0.623508,-0.519516,-0.625508,-0.532021,-0.626679,-0.496941,-0.807317,-1.054012,-0.601235,1.925145,5.031098,5.981205,2.215474,-0.909971,-0.583559,-0.238990,-0.474520,-0.480115,-0.643898,-0.653278,-0.670200,-0.651669,-0.661577,-0.676420,-0.687979,-0.636981,-0.653846,-0.590472,-0.586350,-0.517823,-0.443093,-0.382057,-0.320155,-0.218372,-0.034363,0.076584,0.230137,0.398397,0.540242,0.702752,0.786803,0.905512,0.944691,1.050612,0.900442,0.874689,0.668981,0.560186,0.274788,0.248439,-0.029902,0.033355,-0.207155,-0.063080,-0.250336,-0.102957,-0.305021,-0.083000,-0.357051,0.027829,-0.377147,0.193470,-0.692888,0.000000,0.000000,0.000000,0.000000,0.000000,0.000000,0.000000,0.000000,0.000000,0.000000,0.000000,0.000000,0.000000,0.000000,0.000000,0.000000,0.000000,0.000000,0.000000,0.000000,0.000000,0.000000,0.000000,0.000000,0.000000,0.000000,0.000000,0.000000,0.000000,0.000000,0.000000,0.000000,0.000000,0.000000,0.000000,0.000000,1.000000
4.376081,3.850930,-1.057848,-0.585544,-0.451512,-0.359593,-0.669586,-0.572162,-0.843795,-0.642024,-0.825023,-0.646727,-0.832304,-0.691711,-0.790252,-0.657749,-0.741245,-0.589224,-0.665645,-0.447660,-0.512151,-0.319941,-0.345476,-0.031894,-0.019493,0.245477,0.322227,0.578247,0.651330,0.848959,0.873618,1.020260,1.035504,0.997987,0.851547,0.759129,0.521944,0.341741,0.176088,0.021392,-0.070846,-0.160288,-0.193722,-0.193815,-0.252249,-0.233158,-0.260308,-0.249385,-0.205591,-0.174950,-0.193775,-0.131471,-0.130262,-0.128739,-0.135180,-0.076259,-0.110271,-0.068907,-0.142621,-0.072289,-0.123078,-0.101818,-0.226128,-0.125514,-0.219817,-0.182608,-0.274100,-0.208383,-0.358695,-0.265978,-0.368968,-0.316856,-0.424931,-0.324497,-0.395700,-0.309280,-0.360484,-0.164115,-0.189906,-0.097139,-0.105739,-0.045893,-0.047968,-0.097960,-0.210161,-0.134434,-0.199902,-0.308069,-0.416636,-0.470145,-0.547210,-0.549774,-0.567195,-0.573893,-0.565090,-0.536836,-0.645028,-0.988050,-0.788603,1.209237,4.386593,6.253197,3.838025,-0.292598,-0.937654,-0.270358,-0.356259,-0.469725,-0.558836,-0.632315,-0.700269,-0.639776,-0.707738,-0.643528,-0.752343,-0.668623,-0.724639,-0.606767,-0.662610,-0.551723,-0.582273,-0.458480,-0.481005,-0.308080,-0.297515,-0.092067,-0.031208,0.225970,0.292262,0.545545,0.604636,0.799959,0.845200,1.006938,1.033490,1.129317,1.029462,0.953668,0.776643,0.665686,0.355957,0.260280,0.025877,0.036647,-0.139556,-0.095698,-0.278012,-0.109334,-0.348572,-0.048813,-0.411831,0.178866,-0.748478,0.000000,0.000000,0.000000,0.000000,0.000000,0.000000,0.000000,0.000000,0.000000,0.000000,0.000000,0.000000,0.000000,0.000000,0.000000,0.000000,0.000000,0.000000,0.000000,0.000000,0.000000,0.000000,0.000000,0.000000,0.000000,0.000000,0.000000,0.000000,0.000000,0.000000,0.000000,0.000000,0.000000,0.000000,1.000000
3.878174,4.235820,-0.511506,-0.754793,-0.479156,-0.244744,-0.606358,-0.471725,-0.734744,-0.626816,-0.731720,-0.643587,-0.726495,-0.690534,-0.747310,-0.670896,-0.686705,-0.614788,-0.633184,-0.542584,-0.544143,-0.449987,-0.404858,-0.279118,-0.204325,-0.031542,0.091652,0.274140,0.389770,0.571546,0.629074,0.800434,0.822937,0.981394,0.940622,0.990158,0.781078,0.757813,0.511594,0.374494,0.118882,0.067935,-0.107872,-0.077376,-0.247734,-0.191523,-0.290856,-0.220834,-0.290972,-0.197060,-0.229467,-0.166832,-0.218981,-0.122977,-0.166646,-0.113108,-0.129744,-0.074024,-0.086239,-0.084651,-0.088840,-0.101157,-0.114769,-0.127161,-0.130144,-0.155945,-0.175891,-0.194764,-0.236743,-0.224653,-0.253168,-0.303412,-0.326484,-0.317692,-0.350492,-0.344139,-0.347753,-0.334573,-0.382331,-0.352085,-0.324593,-0.172642,-0.173654,-0.091447,-0.075411,-0.022214,-0.039360,-0.036049,-0.220723,-0.141793,-0.167348,-0.219102,-0.424122,-0.390817,-0.547721,-0.493925,-0.615862,-0.506821,-0.608513,-0.497719,-0.598644,-0.502499,-0.864420,-1.058900,-0.694164,1.513885,4.595759,6.365640,4.183099,-0.024493,-0.892946,-0.302945,-0.287771,-0.473428,-0.499157,-0.659539,-0.649724,-0.742535,-0.698701,-0.758187,-0.712555,-0.744673,-0.678920,-0.715891,-0.646811,-0.656018,-0.628968,-0.580001,-0.537048,-0.456050,-0.437503,-0.301029,-0.236083,-0.050649,0.048103,0.271802,0.363810,0.576215,0.643227,0.870739,0.881407,1.079472,1.039078,1.175836,1.023152,1.078077,0.802769,0.784134,0.405986,0.396501,0.027801,0.086526,-0.188077,-0.050546,-0.285862,-0.049145,-0.420749,0.072292,-0.737650,0.000000,0.000000,0.000000,0.000000,0.000000,0.000000,0.000000,0.000000,0.000000,0.000000,0.000000,0.000000,0.000000,0.000000,0.000000,0.000000,0.000000,0.000000,0.000000,0.000000,0.000000,0.000000,0.000000,0.000000,0.000000,0.000000,0.000000,0.000000,1.000000
4.203293,4.969224,-0.119214,-0.733850,-0.521267,-0.155532,-0.607288,-0.406188,-0.765517,-0.581238,-0.835953,-0.645984,-0.842067,-0.669652,-0.823761,-0.644432,-0.787183,-0.622060,-0.720956,-0.608290,-0.648305,-0.521670,-0.524663,-0.423710,-0.378745,-0.228859,-0.136310,0.048545,0.179647,0.363417,0.482529,0.641747,0.772940,0.887827,0.979510,1.055072,1.081494,1.058235,0.991269,0.862240,0.702714,0.490321,0.301504,0.129244,-0.036944,-0.076844,-0.205319,-0.153063,-0.249430,-0.211306,-0.275581,-0.203482,-0.279274,-0.188809,-0.235815,-0.128024,-0.184744,-0.106691,-0.163210,-0.077044,-0.136884,-0.050592,-0.114270,-0.072891,-0.115599,-0.059930,-0.142484,-0.097674,-0.173035,-0.129206,-0.203090,-0.181723,-0.236086,-0.232899,-0.283448,-0.272423,-0.306977,-0.324172,-0.311574,-0.313074,-0.316851,-0.330418,-0.297159,-0.227205,-0.094887,-0.090059,-0.037445,0.003623,0.001716,0.020717,-0.099593,-0.148185,-0.109456,-0.162606,-0.319008,-0.363823,-0.490082,-0.498046,-0.578952,-0.494983,-0.608810,-0.474255,-0.589165,-0.475503,-0.840798,-0.986643,-0.615770,1.615558,4.783991,6.273291,3.042565,-0.501238,-0.693479,-0.228275,-0.359180,-0.470027,-0.569133,-0.666008,-0.705884,-0.704154,-0.710636,-0.705560,-0.716708,-0.701265,-0.668432,-0.665466,-0.632212,-0.618872,-0.572340,-0.529590,-0.460722,-0.384705,-0.317806,-0.197497,-0.062825,0.092292,0.245989,0.417539,0.548495,0.704054,0.784670,0.932672,0.970693,1.031337,0.966638,0.906395,0.672118,0.626779,0.300803,0.243342,-0.039994,0.033212,-0.259477,-0.136172,-0.397770,-0.147702,-0.438304,-0.109074,-0.524003,0.048542,-0.837281,0.000000,0.000000,0.000000,0.000000,0.000000,0.000000,0.000000,0.000000,0.000000,0.000000,0.000000,0.000000,0.000000,0.000000,0.000000,0.000000,0.000000,0.000000,0.000000,0.000000,0.000000,0.000000,0.000000,0.000000,0.000000,0.000000,1.000000
4.522650,4.568108,-0.428283,-0.525942,-0.374827,-0.118632,-0.537669,-0.384818,-0.715558,-0.564510,-0.753031,-0.583905,-0.744505,-0.597206,-0.738892,-0.558640,-0.691240,-0.529406,-0.638450,-0.476561,-0.545888,-0.370100,-0.395742,-0.224604,-0.212053,0.027167,0.087247,0.341448,0.427558,0.658569,0.732469,0.911777,0.971121,1.118593,1.094506,1.133352,0.999118,0.849275,0.702567,0.491009,0.291113,0.128008,0.040469,-0.081143,-0.165894,-0.216764,-0.225334,-0.218151,-0.242964,-0.219902,-0.242209,-0.184938,-0.202351,-0.201480,-0.192455,-0.125882,-0.192747,-0.122992,-0.171755,-0.115812,-0.171589,-0.117055,-0.236614,-0.157984,-0.285848,-0.160463,-0.287308,-0.209260,-0.333291,-0.285047,-0.378015,-0.336995,-0.407819,-0.360594,-0.420465,-0.377554,-0.425406,-0.401965,-0.412650,-0.332537,-0.222365,-0.154378,-0.169533,-0.103695,-0.067366,-0.010697,-0.093269,-0.223306,-0.187981,-0.151272,-0.326261,-0.395013,-0.456333,-0.533314,-0.593818,-0.548805,-0.606815,-0.540430,-0.580969,-0.517917,-0.822140,-1.030448,-0.603087,1.774064,4.912055,6.154722,2.673464,-0.690803,-0.804290,-0.234042,-0.421368,-0.475780,-0.629173,-0.611414,-0.703297,-0.669703,-0.716733,-0.651468,-0.711592,-0.693650,-0.707064,-0.606572,-0.617085,-0.590613,-0.583534,-0.492290,-0.459376,-0.385510,-0.260184,-0.135700,-0.017015,0.130538,0.335327,0.447272,0.605701,0.747961,0.849333,0.889090,0.986785,1.005154,0.906025,0.820897,0.563689,0.453292,0.216210,0.133483,-0.080149,-0.006040,-0.235802,-0.092188,-0.295579,-0.060198,-0.330343,0.030295,-0.427925,0.250660,-0.714757,0.000000,0.000000,0.000000,0.000000,0.000000,0.000000,0.000000,0.000000,0.000000,0.000000,0.000000,0.000000,0.000000,0.000000,0.000000,0.000000,0.000000,0.000000,0.000000,0.000000,0.000000,0.000000,0.000000,0.000000,0.000000,0.000000,0.000000,0.000000,0.000000,0.000000,1.000000
4.230233,4.176884,-0.613877,-0.762229,-0.474154,-0.268759,-0.617753,-0.530592,-0.743242,-0.631478,-0.790952,-0.665759,-0.766024,-0.661704,-0.797883,-0.676443,-0.715273,-0.582426,-0.687323,-0.560069,-0.593748,-0.435777,-0.486173,-0.250956,-0.233096,-0.006503,0.029970,0.340908,0.359938,0.612074,0.662728,0.867185,0.811653,1.003020,0.937225,0.937135,0.755735,0.605327,0.377649,0.259826,0.046825,-0.034596,-0.110586,-0.176152,-0.218570,-0.215158,-0.217210,-0.209188,-0.185547,-0.214479,-0.128574,-0.130502,-0.093484,-0.117791,-0.048683,-0.097403,-0.081885,-0.096150,-0.065488,-0.129795,-0.081932,-0.129605,-0.124257,-0.188527,-0.171130,-0.239226,-0.244318,-0.254885,-0.271196,-0.305394,-0.337443,-0.314259,-0.363097,-0.338753,-0.369139,-0.348221,-0.387454,-0.306597,-0.282955,-0.124108,-0.147265,-0.072666,-0.047705,0.006404,-0.011485,-0.078226,-0.212140,-0.151578,-0.140859,-0.285673,-0.354939,-0.429828,-0.480998,-0.545984,-0.535964,-0.568950,-0.506096,-0.542585,-0.492499,-0.658116,-0.919120,-0.794279,1.039659,4.105096,6.242960,4.681116,0.408865,-1.086110,-0.266421,-0.392614,-0.429927,-0.583823,-0.576852,-0.673649,-0.621121,-0.685122,-0.633979,-0.696145,-0.642730,-0.665808,-0.612857,-0.617940,-0.558860,-0.547855,-0.503031,-0.445678,-0.350241,-0.251221,-0.126421,-0.007646,0.144762,0.308751,0.486411,0.599955,0.765684,0.875223,0.968969,0.985633,1.074331,0.980189,0.942077,0.714637,0.603578,0.338970,0.229960,-0.029655,0.004811,-0.230280,-0.082388,-0.340431,-0.074889,-0.396471,-0.038615,-0.449754,0.165136,-0.786074,0.000000,0.000000,0.000000,0.000000,0.000000,0.000000,0.000000,0.000000,0.000000,0.000000,0.000000,0.000000,0.000000,0.000000,0.000000,0.000000,0.000000,0.000000,0.000000,0.000000,0.000000,0.000000,0.000000,0.000000,0.000000,0.000000,0.000000,0.000000,0.000000,0.000000,0.000000,1.000000
4.024225,4.909052,0.066313,-0.889056,-0.455712,-0.296651,-0.566080,-0.510019,-0.683849,-0.612870,-0.713008,-0.634391,-0.716750,-0.651839,-0.719523,-0.627849,-0.687063,-0.585677,-0.632903,-0.521154,-0.577822,-0.425945,-0.431336,-0.241918,-0.217534,-0.010332,0.040678,0.290812,0.366244,0.569825,0.631313,0.834056,0.825171,0.941916,0.923738,0.942166,0.796236,0.695274,0.469436,0.343172,0.106582,-0.001663,-0.120281,-0.181346,-0.220744,-0.266265,-0.242211,-0.281835,-0.261896,-0.250662,-0.214431,-0.235549,-0.183324,-0.179190,-0.134845,-0.162342,-0.095191,-0.161655,-0.086296,-0.131452,-0.117163,-0.159793,-0.142542,-0.168706,-0.170168,-0.229198,-0.239964,-0.270395,-0.281957,-0.289475,-0.338929,-0.320737,-0.362791,-0.351932,-0.392462,-0.362061,-0.392678,-0.313007,-0.253680,-0.131141,-0.127153,-0.035186,-0.062905,0.020236,-0.112496,-0.163099,-0.158459,-0.159785,-0.298249,-0.386493,-0.465759,-0.523750,-0.556516,-0.556642,-0.507434,-0.559956,-0.520956,-0.571456,-0.935588,-1.070665,0.452386,3.758236,6.354663,4.370750,-0.138842,-0.905311,-0.165771,-0.420564,-0.427938,-0.599583,-0.598370,-0.690677,-0.652008,-0.708090,-0.678406,-0.699732,-0.639638,-0.640509,-0.624160,-0.609633,-0.524064,-0.469687,-0.410585,-0.357278,-0.234112,-0.124662,0.021273,0.210323,0.383668,0.528363,0.683826,0.831569,0.934168,1.008941,1.093827,1.031436,0.973248,0.802618,0.664124,0.411904,0.263511,0.022685,0.012241,-0.166637,-0.122766,-0.274421,-0.160736,-0.312769,-0.110957,-0.333735,-0.038220,-0.387896,0.164559,-0.665224,0.000000,0.000000,0.000000,0.000000,0.000000,0.000000,0.000000,0.000000,0.000000,0.000000,0.000000,0.000000,0.000000,0.000000,0.000000,0.000000,0.000000,0.000000,0.000000,0.000000,0.000000,0.000000,0.000000,0.000000,0.000000,0.000000,0.000000,0.000000,0.000000,0.000000,0.000000,0.000000,0.000000,1.000000
4.115878,4.827998,-0.434499,-0.745522,-0.395390,-0.329872,-0.598638,-0.539741,-0.739955,-0.648533,-0.777414,-0.677789,-0.793160,-0.678033,-0.748488,-0.626222,-0.728533,-0.599947,-0.627047,-0.466542,-0.514325,-0.358461,-0.339595,-0.132633,-0.088808,0.194909,0.263861,0.504133,0.555955,0.800132,0.795889,0.973925,0.947114,0.992043,0.822374,0.768673,0.513627,0.390427,0.117782,0.021016,-0.127756,-0.153607,-0.266620,-0.244000,-0.316621,-0.259710,-0.291892,-0.247243,-0.268627,-0.223254,-0.204761,-0.180431,-0.164875,-0.139967,-0.111494,-0.141856,-0.113212,-0.136031,-0.124016,-0.145165,-0.147695,-0.157244,-0.173029,-0.211661,-0.233279,-0.244167,-0.289198,-0.274143,-0.316017,-0.290650,-0.335381,-0.336506,-0.390296,-0.346682,-0.384154,-0.328658,-0.380374,-0.239304,-0.206593,-0.124343,-0.121378,0.014315,-0.058862,0.026354,-0.205622,-0.143125,-0.230380,-0.232999,-0.408954,-0.421924,-0.556334,-0.501347,-0.573577,-0.527530,-0.588576,-0.536230,-0.600439,-0.943140,-1.001236,0.615359,3.915760,6.260316,4.271047,-0.182035,-0.892395,-0.213736,-0.340027,-0.441560,-0.535376,-0.624645,-0.638178,-0.640970,-0.642745,-0.675785,-0.647840,-0.661450,-0.632028,-0.584782,-0.565132,-0.528958,-0.505820,-0.416178,-0.382212,-0.283620,-0.199169,-0.022335,0.058097,0.284165,0.389880,0.589985,0.635352,0.841681,0.855158,1.026175,0.941519,1.064497,0.877224,0.871778,0.572041,0.506178,0.199886,0.188689,-0.071078,-0.008740,-0.217599,-0.062285,-0.286299,-0.068371,-0.292304,-0.008654,-0.356398,0.198563,-0.669736,0.000000,0.000000,0.000000,0.000000,0.000000,0.000000,0.000000,0.000000,0.000000,0.000000,0.000000,0.000000,0.000000,0.000000,0.000000,0.000000,0.000000,0.000000,0.000000,0.000000,0.000000,0.000000,0.000000,0.000000,0.000000,0.000000,0.000000,0.000000,0.000000,0.000000,0.000000,0.000000,0.000000,0.000000,1.000000
4.521496,4.643820,-0.815808,-0.746056,-0.474869,-0.319248,-0.681547,-0.557286,-0.849046,-0.677662,-0.847937,-0.696272,-0.875942,-0.706018,-0.855412,-0.691302,-0.767234,-0.625627,-0.704942,-0.563214,-0.579906,-0.434023,-0.435769,-0.235536,-0.155005,0.037773,0.174967,0.390168,0.497191,0.650162,0.764415,0.882859,0.956321,0.971889,0.993006,0.899216,0.779828,0.573879,0.385187,0.184608,0.043187,-0.093196,-0.174391,-0.233658,-0.245341,-0.286513,-0.276847,-0.254696,-0.268809,-0.235490,-0.202444,-0.212003,-0.234844,-0.139927,-0.180377,-0.142586,-0.154643,-0.108510,-0.152104,-0.107527,-0.217050,-0.183636,-0.248743,-0.209760,-0.268265,-0.252681,-0.334016,-0.310608,-0.334730,-0.355902,-0.429477,-0.408097,-0.410062,-0.411224,-0.426104,-0.394858,-0.429603,-0.416375,-0.405733,-0.375529,-0.249106,-0.187425,-0.124711,-0.113796,-0.057217,-0.091119,-0.050924,-0.218080,-0.174622,-0.196768,-0.230248,-0.409553,-0.395955,-0.509721,-0.501052,-0.571515,-0.498222,-0.614437,-0.500078,-0.579425,-0.494017,-0.673406,-0.959382,-0.752707,0.883718,3.849590,6.011199,4.454673,0.422003,-0.894648,-0.403597,-0.209628,-0.426375,-0.364179,-0.536470,-0.549861,-0.634151,-0.591416,-0.626705,-0.600504,-0.609247,-0.555053,-0.563504,-0.513462,-0.501794,-0.471579,-0.434535,-0.430548,-0.353163,-0.285045,-0.156517,-0.114621,0.065316,0.168111,0.370322,0.419419,0.626161,0.665917,0.928144,0.903788,1.063600,1.004559,1.110471,0.932220,0.943097,0.655657,0.622325,0.296699,0.351165,0.037502,0.152336,-0.104835,0.117069,-0.172460,0.157979,-0.257120,0.330603,-0.557094,0.000000,0.000000,0.000000,0.000000,0.000000,0.000000,0.000000,0.000000,0.000000,0.000000,0.000000,0.000000,0.000000,0.000000,0.000000,0.000000,0.000000,0.000000,0.000000,0.000000,0.000000,0.000000,0.000000,0.000000,0.000000,0.000000,0.000000,0.000000,0.000000,1.000000
3.948267,4.602000,-0.134849,-0.920543,-0.753915,-0.311874,-0.744520,-0.492669,-0.834002,-0.693364,-0.917551,-0.744254,-0.901814,-0.760112,-0.878676,-0.719501,-0.829252,-0.681502,-0.764963,-0.642314,-0.696013,-0.603100,-0.614383,-0.460040,-0.418074,-0.290854,-0.198541,-0.010186,0.104907,0.241292,0.358141,0.487618,0.655699,0.730336,0.789045,0.834961,0.834649,0.771542,0.666218,0.505977,0.341053,0.157359,0.056615,-0.086667,-0.161943,-0.210238,-0.227844,-0.239445,-0.244397,-0.236155,-0.231202,-0.177083,-0.188406,-0.165586,-0.160697,-0.121942,-0.125991,-0.066150,-0.109762,-0.050815,-0.116040,-0.087062,-0.148234,-0.091112,-0.158780,-0.180166,-0.243220,-0.204301,-0.292738,-0.253426,-0.313277,-0.304197,-0.323051,-0.334526,-0.329559,-0.361610,-0.328874,-0.360328,-0.317311,-0.333197,-0.219871,-0.160155,-0.070292,-0.092137,0.017071,-0.029382,0.069327,-0.100340,-0.095178,-0.137754,-0.047638,-0.239764,-0.250071,-0.395774,-0.378641,-0.487955,-0.445230,-0.500882,-0.439378,-0.482067,-0.448630,-0.518942,-0.477900,-0.797264,-0.940956,-0.401766,1.683738,4.567525,6.249024,4.425657,0.319232,-0.828967,-0.312669,-0.094213,-0.349677,-0.353620,-0.516376,-0.535585,-0.604419,-0.598232,-0.633354,-0.608416,-0.613932,-0.611211,-0.606224,-0.564074,-0.528118,-0.542297,-0.438366,-0.481938,-0.338644,-0.365102,-0.178548,-0.159848,0.067678,0.090161,0.348845,0.417515,0.646551,0.672006,0.868909,0.891773,1.057432,0.985683,1.107647,0.934044,0.943135,0.705241,0.605847,0.292533,0.235731,-0.050182,0.032110,-0.162548,-0.032728,-0.251810,-0.001746,-0.349047,0.111770,-0.659810,0.000000,0.000000,0.000000,0.000000,0.000000,0.000000,0.000000,0.000000,0.000000,0.000000,0.000000,0.000000,0.000000,0.000000,0.000000,0.000000,0.000000,0.000000,0.000000,0.000000,0.000000,0.000000,0.000000,0.000000,0.000000,0.000000,0.000000,1.000000
4.113159,5.118614,0.225042,-0.646356,-0.504445,0.026871,-0.446273,-0.268334,-0.587295,-0.469427,-0.666024,-0.544035,-0.687596,-0.564429,-0.662110,-0.571418,-0.651500,-0.535289,-0.567048,-0.516889,-0.481095,-0.455193,-0.388580,-0.340084,-0.238139,-0.140363,-0.000383,0.108949,0.267718,0.433029,0.564806,0.691781,0.784143,0.911186,0.976472,1.018280,1.027507,0.991205,0.870432,0.782125,0.548426,0.384357,0.167466,0.048709,-0.071373,-0.053943,-0.158900,-0.117147,-0.179892,-0.134537,-0.206829,-0.131771,-0.146629,-0.101719,-0.147009,-0.073185,-0.064755,-0.047850,-0.045591,-0.019845,-0.033251,-0.020403,-0.028127,-0.059556,-0.050491,-0.102592,-0.119048,-0.149569,-0.152070,-0.202807,-0.190312,-0.243359,-0.216709,-0.290062,-0.254484,-0.330566,-0.269907,-0.338552,-0.279979,-0.343212,-0.314600,-0.361113,-0.336873,-0.364173,-0.320353,-0.348848,-0.306888,-0.277325,-0.138324,-0.143119,-0.088011,-0.024309,-0.020026,0.018674,-0.046226,-0.157907,-0.188918,-0.109058,-0.238444,-0.297472,-0.383765,-0.443684,-0.496507,-0.541114,-0.549238,-0.557622,-0.564712,-0.592594,-0.543318,-0.604922,-0.540228,-0.913345,-1.065469,-0.521101,1.905228,4.836079,6.219537,4.065249,0.141665,-0.988283,-0.485396,-0.298661,-0.485757,-0.538466,-0.629199,-0.718467,-0.714646,-0.760321,-0.730835,-0.788680,-0.734240,-0.743063,-0.670498,-0.696685,-0.637658,-0.640011,-0.584135,-0.572016,-0.514197,-0.464977,-0.370515,-0.281303,-0.153981,-0.001591,0.139331,0.296569,0.453908,0.588949,0.718581,0.824258,0.907556,0.943938,0.960154,0.855439,0.805502,0.556424,0.409137,0.117479,0.016522,-0.214187,-0.135651,-0.395057,-0.196862,-0.449430,-0.131612,-0.535897,0.019310,-0.889554,0.000000,0.000000,0.000000,0.000000,0.000000,0.000000,0.000000,0.000000,0.000000,0.000000,0.000000,0.000000,0.000000,0.000000,0.000000,0.000000,0.000000,0.000000,0.000000,1.000000
4.277451,5.421300,0.502856,-0.677836,-0.610838,-0.040321,-0.449514,-0.324888,-0.574647,-0.525504,-0.664206,-0.580997,-0.675161,-0.613853,-0.680803,-0.576886,-0.613258,-0.528703,-0.578921,-0.475123,-0.522743,-0.409264,-0.451466,-0.307340,-0.308560,-0.125946,-0.092884,0.151134,0.206331,0.451078,0.525700,0.750726,0.796320,0.992980,0.992617,1.120711,1.052566,1.043117,0.897512,0.756259,0.493626,0.318571,0.082872,-0.014382,-0.092944,-0.177239,-0.188012,-0.197194,-0.176535,-0.198865,-0.176874,-0.202112,-0.169026,-0.163879,-0.123938,-0.128584,-0.078798,-0.130995,-0.074355,-0.086356,-0.062926,-0.104980,-0.081226,-0.127465,-0.132525,-0.166637,-0.173543,-0.226416,-0.176663,-0.252932,-0.255708,-0.289902,-0.317043,-0.336076,-0.359548,-0.322217,-0.382927,-0.341487,-0.373283,-0.337682,-0.377208,-0.366314,-0.372362,-0.277445,-0.184155,-0.141570,-0.128354,-0.044313,-0.036562,0.002514,-0.108630,-0.238832,-0.182074,-0.185376,-0.242336,-0.377101,-0.433017,-0.512391,-0.527308,-0.597236,-0.532968,-0.584520,-0.488215,-0.626710,-0.484832,-0.773186,-0.997191,-0.741581,1.244766,4.192902,6.119297,4.064456,0.040665,-0.966120,-0.355212,-0.360043,-0.451545,-0.503518,-0.590645,-0.641364,-0.703739,-0.702675,-0.687182,-0.684031,-0.671092,-0.672593,-0.662164,-0.629799,-0.619302,-0.583677,-0.566508,-0.499649,-0.451175,-0.333381,-0.238217,-0.108151,0.010222,0.144890,0.320749,0.466744,0.608603,0.697256,0.850448,0.890007,0.998979,0.840391,0.842474,0.573543,0.510788,0.148555,0.116735,-0.135254,-0.087373,-0.327496,-0.109403,-0.331040,-0.108617,-0.394587,-0.042253,-0.468039,0.106113,-0.766256,0.000000,0.000000,0.000000,0.000000,0.000000,0.000000,0.000000,0.000000,0.000000,0.000000,0.000000,0.000000,0.000000,0.000000,0.000000,0.000000,0.000000,0.000000,0.000000,0.000000,0.000000,0.000000,0.000000,0.000000,0.000000,1.000000
4.200941,4.807767,-0.068986,-0.702382,-0.457920,-0.144645,-0.493327,-0.322723,-0.608309,-0.479341,-0.709055,-0.555478,-0.685929,-0.543092,-0.664351,-0.535601,-0.652601,-0.497462,-0.606336,-0.454266,-0.552107,-0.374388,-0.436861,-0.213547,-0.223599,0.009354,0.025559,0.260008,0.333253,0.583013,0.625784,0.815456,0.867931,1.012780,1.023301,0.981123,0.869171,0.727071,0.537058,0.314015,0.126594,0.028994,-0.090084,-0.157986,-0.141428,-0.138800,-0.164716,-0.167854,-0.155015,-0.154661,-0.159040,-0.108810,-0.120958,-0.074241,-0.104184,-0.060024,-0.079314,-0.068247,-0.134130,-0.087898,-0.138924,-0.100403,-0.197953,-0.137618,-0.247719,-0.179330,-0.282666,-0.232805,-0.355445,-0.248314,-0.359995,-0.315057,-0.396168,-0.350293,-0.429962,-0.333223,-0.432023,-0.346540,-0.397060,-0.209174,-0.191671,-0.123665,-0.060159,-0.074997,-0.089947,-0.083782,-0.224566,-0.189749,-0.163848,-0.302897,-0.389577,-0.451279,-0.524484,-0.576635,-0.584464,-0.565695,-0.610749,-0.552773,-0.576808,-0.542163,-0.858352,-1.069886,-0.563223,1.745407,4.936289,6.271317,3.156203,-0.637353,-0.778054,-0.211853,-0.371076,-0.422389,-0.544153,-0.634898,-0.703236,-0.660647,-0.731426,-0.657404,-0.739155,-0.673440,-0.736239,-0.609821,-0.618071,-0.596088,-0.561608,-0.446504,-0.449973,-0.306538,-0.260951,-0.067767,0.051426,0.240712,0.363064,0.563387,0.662763,0.777610,0.859749,0.966378,0.963195,0.970180,0.874961,0.728395,0.480532,0.348332,0.133119,0.041342,-0.135777,-0.120243,-0.269234,-0.180783,-0.291802,-0.128426,-0.382699,-0.068648,-0.430646,0.121163,-0.766066,0.000000,0.000000,0.000000,0.000000,0.000000,0.000000,0.000000,0.000000,0.000000,0.000000,0.000000,0.000000,0.000000,0.000000,0.000000,0.000000,0.000000,0.000000,0.000000,0.000000,0.000000,0.000000,0.000000,0.000000,0.000000,0.000000,0.000000,0.000000,0.000000,0.000000,1.000000
4.282358,4.276316,-0.671034,-0.575383,-0.328728,-0.144137,-0.475137,-0.355877,-0.659521,-0.548487,-0.677849,-0.587125,-0.669284,-0.598518,-0.681375,-0.602109,-0.622833,-0.483471,-0.597706,-0.441337,-0.446729,-0.327388,-0.310618,-0.140715,-0.076879,0.169830,0.235120,0.482404,0.558981,0.790004,0.780214,0.987890,0.972883,1.102543,0.982445,1.025102,0.752111,0.638046,0.361180,0.291134,0.043078,0.022208,-0.135902,-0.102616,-0.217010,-0.111593,-0.187504,-0.162864,-0.188784,-0.124954,-0.150906,-0.108411,-0.105098,-0.057590,-0.052051,-0.056493,-0.020070,-0.071779,-0.043594,-0.074147,-0.103161,-0.123269,-0.117506,-0.151686,-0.186889,-0.197201,-0.209966,-0.262944,-0.287067,-0.316176,-0.340947,-0.337502,-0.343793,-0.353469,-0.400814,-0.341872,-0.393165,-0.339195,-0.388973,-0.308393,-0.326143,-0.106777,-0.200330,-0.040231,-0.131156,0.003826,-0.096578,-0.084030,-0.269419,-0.096641,-0.269285,-0.285461,-0.472564,-0.433307,-0.592578,-0.528747,-0.625216,-0.577404,-0.642896,-0.538842,-0.614542,-0.552626,-0.776603,-1.122765,-0.846326,1.314035,4.721184,6.400969,3.850549,-0.439371,-0.873754,-0.333287,-0.336518,-0.500448,-0.576497,-0.681406,-0.652627,-0.763792,-0.738134,-0.748501,-0.733442,-0.734198,-0.692049,-0.651500,-0.664385,-0.585792,-0.571139,-0.482392,-0.445057,-0.261950,-0.259091,0.012990,0.095764,0.338560,0.424467,0.674175,0.706650,0.933149,0.919017,1.091864,0.937333,0.992578,0.687031,0.595042,0.286345,0.223611,-0.044950,-0.004541,-0.207702,-0.140712,-0.315666,-0.142981,-0.327473,-0.110092,-0.321995,-0.057105,-0.351591,0.196938,-0.681725,0.000000,0.000000,0.000000,0.000000,0.000000,0.000000,0.000000,0.000000,0.000000,0.000000,0.000000,0.000000,0.000000,0.000000,0.000000,0.000000,0.000000,0.000000,0.000000,0.000000,0.000000,0.000000,0.000000,0.000000,0.000000,0.000000,0.000000,0.000000,1.000000
4.328356,4.764355,-0.490098,-0.649188,-0.449143,-0.132725,-0.544079,-0.407726,-0.705258,-0.507716,-0.768462,-0.609963,-0.746427,-0.612352,-0.726298,-0.579724,-0.638434,-0.554512,-0.572630,-0.464960,-0.467299,-0.344663,-0.248142,-0.159245,0.020216,0.193924,0.345639,0.520734,0.680536,0.804247,0.938278,1.018801,1.097203,1.043619,0.998512,0.802073,0.600801,0.406200,0.225429,0.080433,-0.010673,-0.074107,-0.156631,-0.170245,-0.175506,-0.161647,-0.169806,-0.119391,-0.170241,-0.065375,-0.067485,-0.048509,-0.069902,-0.032526,-0.081953,-0.028419,-0.086824,-0.049517,-0.122845,-0.080449,-0.153383,-0.147581,-0.211911,-0.182822,-0.272970,-0.260771,-0.287989,-0.319722,-0.337404,-0.318249,-0.346669,-0.401460,-0.369045,-0.399738,-0.411244,-0.441227,-0.365908,-0.406593,-0.297680,-0.201989,-0.149955,-0.188183,-0.063254,-0.089692,-0.037427,-0.214773,-0.210450,-0.229741,-0.228445,-0.392050,-0.438087,-0.527366,-0.526051,-0.622719,-0.574800,-0.604606,-0.563781,-0.597752,-0.534971,-0.707767,-1.064963,-0.804446,1.240044,4.373676,6.287748,3.660706,-0.687752,-0.845869,-0.272398,-0.376949,-0.548771,-0.576690,-0.693967,-0.691679,-0.738438,-0.703932,-0.721261,-0.700272,-0.647291,-0.675116,-0.640515,-0.594291,-0.538342,-0.525169,-0.386811,-0.392610,-0.236270,-0.170664,0.062163,0.173135,0.439457,0.468860,0.733436,0.784582,0.912727,0.887562,1.055471,0.882276,0.865519,0.580449,0.481587,0.148294,0.113787,-0.096542,-0.052251,-0.199232,-0.090279,-0.241188,-0.082050,-0.245356,-0.043043,-0.242634,0.055392,-0.267235,0.275505,-0.600139,0.000000,0.000000,0.000000,0.000000,0.000000,0.000000,0.000000,0.000000,0.000000,0.000000,0.000000,0.000000,0.000000,0.000000,0.000000,0.000000,0.000000,0.000000,0.000000,0.000000,0.000000,0.000000,0.000000,0.000000,0.000000,0.000000,0.000000,0.000000,0.000000,0.000000,0.000000,1.000000
4.422113,4.325144,-1.002663,-0.688612,-0.448883,-0.268050,-0.684508,-0.509505,-0.810411,-0.648348,-0.842918,-0.673968,-0.815090,-0.679567,-0.733212,-0.655891,-0.723641,-0.579827,-0.612555,-0.513130,-0.456828,-0.375536,-0.304049,-0.151894,0.000531,0.199854,0.391106,0.512715,0.688454,0.845219,0.885029,0.952041,1.031448,0.969997,0.844459,0.672204,0.450019,0.232652,0.051164,-0.024580,-0.135283,-0.129926,-0.188890,-0.161386,-0.201278,-0.144658,-0.190376,-0.106551,-0.144558,-0.047435,-0.072620,-0.018311,-0.096413,-0.006420,-0.066013,-0.060321,-0.121879,-0.070555,-0.124383,-0.147158,-0.216222,-0.227136,-0.262993,-0.259224,-0.303650,-0.369584,-0.342474,-0.356661,-0.386721,-0.428484,-0.362974,-0.428088,-0.403054,-0.454993,-0.369032,-0.423492,-0.271468,-0.205331,-0.150072,-0.148236,-0.025937,-0.092580,-0.013198,-0.120284,-0.207521,-0.213252,-0.170978,-0.324487,-0.390789,-0.476671,-0.513973,-0.564694,-0.546358,-0.560331,-0.572249,-0.564888,-0.537651,-0.623555,-1.000235,-0.854706,0.711005,4.048940,6.347860,3.945151,-0.432720,-0.826148,-0.209110,-0.398676,-0.476595,-0.558703,-0.654518,-0.685588,-0.631950,-0.670569,-0.641690,-0.672172,-0.628102,-0.690987,-0.548088,-0.609766,-0.492202,-0.529054,-0.355016,-0.407980,-0.218115,-0.213322,0.023419,0.064122,0.332714,0.390565,0.618064,0.636050,0.890174,0.877646,1.049381,1.032779,1.113095,0.932678,0.918357,0.662158,0.556793,0.294449,0.259161,0.033479,0.029263,-0.104063,-0.037912,-0.222420,-0.033150,-0.269918,0.013344,-0.363945,0.195373,-0.685386,0.000000,0.000000,0.000000,0.000000,0.000000,0.000000,0.000000,0.000000,0.000000,0.000000,0.000000,0.000000,0.000000,0.000000,0.000000,0.000000,0.000000,0.000000,0.000000,0.000000,0.000000,0.000000,0.000000,0.000000,0.000000,0.000000,0.000000,0.000000,0.000000,0.000000,0.000000,0.000000,0.000000,1.000000
4.014588,4.825738,-0.351361,-0.755427,-0.408442,-0.283169,-0.599198,-0.479707,-0.741362,-0.633801,-0.716942,-0.624683,-0.717262,-0.635464,-0.696797,-0.659180,-0.625852,-0.579295,-0.570861,-0.506785,-0.441359,-0.388939,-0.313757,-0.205574,-0.085493,0.059101,0.208144,0.373160,0.483029,0.610106,0.740768,0.846555,0.892605,0.997952,0.954790,0.908838,0.765629,0.655809,0.414876,0.309594,0.121711,0.068662,-0.109476,-0.048871,-0.191626,-0.139220,-0.215720,-0.144934,-0.228472,-0.145408,-0.210933,-0.095871,-0.164361,-0.073047,-0.118116,-0.045007,-0.070760,-0.018340,-0.050742,-0.040664,-0.067768,-0.039562,-0.099923,-0.096789,-0.140811,-0.146154,-0.201217,-0.219232,-0.216693,-0.243320,-0.249693,-0.284221,-0.287590,-0.325039,-0.304025,-0.371829,-0.347279,-0.371526,-0.332646,-0.397836,-0.348219,-0.295951,-0.152544,-0.143925,-0.104827,-0.022392,-0.019891,-0.016859,-0.093521,-0.151865,-0.179156,-0.120844,-0.272576,-0.338189,-0.467567,-0.452463,-0.592024,-0.533123,-0.613261,-0.520032,-0.611763,-0.491341,-0.656847,-0.976960,-0.988254,0.749856,3.933576,6.307070,4.812432,0.319565,-1.071313,-0.281032,-0.344891,-0.475114,-0.572947,-0.648346,-0.726968,-0.734185,-0.706272,-0.715750,-0.723701,-0.732758,-0.695897,-0.682854,-0.660593,-0.623617,-0.588667,-0.569851,-0.498273,-0.401112,-0.337038,-0.207906,-0.074964,0.050027,0.214579,0.397924,0.519985,0.643936,0.708731,0.845521,0.875961,1.001537,0.912597,0.923811,0.733022,0.675800,0.356593,0.290172,-0.004732,0.055842,-0.237412,-0.107704,-0.338997,-0.119222,-0.404096,-0.073324,-0.460041,0.066936,-0.787725,0.000000,0.000000,0.000000,0.000000,0.000000,0.000000,0.000000,0.000000,0.000000,0.000000,0.000000,0.000000,0.000000,0.000000,0.000000,0.000000,0.000000,0.000000,0.000000,0.000000,0.000000,0.000000,0.000000,0.000000,0.000000,0.000000,0.000000,0.000000,1.000000
4.354027,5.289125,-0.032950,-0.764774,-0.368597,-0.136394,-0.525607,-0.394582,-0.674159,-0.566272,-0.744532,-0.556494,-0.716889,-0.581694,-0.727492,-0.559801,-0.672748,-0.528767,-0.610595,-0.459786,-0.554120,-0.374189,-0.384673,-0.214458,-0.193284,0.044693,0.065738,0.329210,0.413501,0.636600,0.663352,0.825735,0.864608,0.994900,1.022464,1.043644,0.950378,0.873562,0.707456,0.510460,0.314917,0.150410,0.062466,-0.068803,-0.125511,-0.158704,-0.165257,-0.188698,-0.175740,-0.163891,-0.176988,-0.160242,-0.135996,-0.085645,-0.122612,-0.077738,-0.093720,-0.030981,-0.117331,-0.010592,-0.085610,-0.038549,-0.107275,-0.045559,-0.108708,-0.071779,-0.158184,-0.105087,-0.194313,-0.154351,-0.236036,-0.185973,-0.313663,-0.213047,-0.339312,-0.276661,-0.376902,-0.304210,-0.374257,-0.318263,-0.385360,-0.343393,-0.411359,-0.332955,-0.300923,-0.192534,-0.155460,-0.109732,-0.058938,-0.042445,-0.021378,-0.067658,-0.184518,-0.209026,-0.151617,-0.293662,-0.399505,-0.470816,-0.507569,-0.533330,-0.576852,-0.540861,-0.607088,-0.558001,-0.578144,-0.534306,-0.923153,-1.090504,-0.508216,1.915245,4.886595,6.180913,2.830565,-0.718684,-0.830972,-0.291023,-0.439640,-0.496468,-0.562183,-0.649818,-0.682722,-0.697624,-0.761754,-0.733481,-0.735162,-0.715015,-0.719176,-0.659008,-0.650180,-0.636523,-0.635979,-0.573564,-0.528460,-0.437079,-0.393276,-0.307600,-0.213694,-0.080948,0.050983,0.189931,0.310340,0.479564,0.613155,0.715677,0.809777,0.880531,0.917833,0.935858,0.842574,0.795647,0.585702,0.462769,0.224770,0.119069,-0.101348,-0.042444,-0.284546,-0.085313,-0.406403,-0.083061,-0.474026,0.101331,-0.840554,0.000000,0.000000,0.000000,0.000000,0.000000,0.000000,0.000000,0.000000,0.000000,0.000000,0.000000,0.000000,0.000000,0.000000,0.000000,0.000000,0.000000,0.000000,0.000000,0.000000,0.000000,0.000000,0.000000,0.000000,1.000000
4.449465,4.296767,-0.731950,-0.673114,-0.437926,-0.208092,-0.577113,-0.386900,-0.701565,-0.550310,-0.737420,-0.642976,-0.777382,-0.628814,-0.746856,-0.621594,-0.689971,-0.550478,-0.653902,-0.543512,-0.594126,-0.439797,-0.452044,-0.296648,-0.317275,-0.120620,-0.084913,0.150066,0.203582,0.421330,0.500717,0.743381,0.765093,0.952256,0.950649,1.073372,1.028214,1.018752,0.893530,0.777460,0.551731,0.401495,0.186283,0.044546,-0.017842,-0.133936,-0.110057,-0.212498,-0.183794,-0.204335,-0.149002,-0.205497,-0.130990,-0.191832,-0.115524,-0.114772,-0.072213,-0.100569,-0.063563,-0.079876,-0.079827,-0.064329,-0.073476,-0.059399,-0.105139,-0.108467,-0.116995,-0.130393,-0.179107,-0.162996,-0.232468,-0.233119,-0.306828,-0.288141,-0.333916,-0.338970,-0.375541,-0.329868,-0.354712,-0.364775,-0.378799,-0.390286,-0.413073,-0.406602,-0.385600,-0.370368,-0.264711,-0.164764,-0.093548,-0.105400,0.013386,-0.023725,0.018190,-0.153335,-0.169134,-0.191435,-0.168848,-0.366180,-0.361048,-0.540009,-0.489428,-0.604454,-0.533888,-0.623960,-0.496724,-0.606808,-0.499696,-0.783072,-1.032200,-0.607310,1.588272,4.734505,6.515326,3.798855,-0.358156,-0.916258,-0.283854,-0.324829,-0.498749,-0.531291,-0.648434,-0.640944,-0.707931,-0.655728,-0.708258,-0.674818,-0.683321,-0.685045,-0.659068,-0.667058,-0.573555,-0.552839,-0.512894,-0.496029,-0.352685,-0.342589,-0.134656,-0.081915,0.149073,0.170240,0.411924,0.435669,0.702781,0.697611,0.971402,0.840321,1.057594,0.895794,0.933630,0.677134,0.669576,0.329271,0.318364,0.001995,0.032927,-0.204973,-0.064299,-0.265594,-0.079955,-0.333640,0.001889,-0.382154,0.140814,-0.779242,0.000000,0.000000,0.000000,0.000000,0.000000,0.000000,0.000000,0.000000,0.000000,0.000000,0.000000,0.000000,0.000000,0.000000,0.000000,0.000000,0.000000,0.000000,0.000000,0.000000,0.000000,0.000000,0.000000,1.000000
4.303769,5.239356,0.035711,-0.776430,-0.497664,-0.107478,-0.560662,-0.372992,-0.683748,-0.513702,-0.732670,-0.552797,-0.716258,-0.585400,-0.686320,-0.597904,-0.663784,-0.584506,-0.592913,-0.472383,-0.519577,-0.430212,-0.373692,-0.279016,-0.174898,-0.027224,0.101012,0.225916,0.353401,0.486649,0.634005,0.749710,0.896037,0.917576,0.972769,0.993421,0.870364,0.791567,0.614380,0.467502,0.258011,0.154443,-0.040406,-0.046993,-0.162483,-0.089908,-0.204333,-0.121971,-0.186978,-0.077852,-0.201699,-0.112054,-0.159662,-0.064066,-0.146030,-0.012758,-0.093847,-0.044930,-0.102995,-0.035860,-0.125471,-0.048582,-0.083624,-0.094456,-0.156148,-0.150141,-0.222740,-0.234682,-0.230400,-0.285140,-0.304894,-0.317961,-0.320779,-0.358326,-0.337496,-0.364108,-0.353939,-0.390100,-0.355072,-0.342471,-0.204594,-0.123165,-0.107271,-0.063098,-0.024364,0.005392,-0.094428,-0.164174,-0.149643,-0.158404,-0.293357,-0.360594,-0.486296,-0.471336,-0.549803,-0.515086,-0.590920,-0.499282,-0.585051,-0.512271,-0.626815,-0.896919,-1.048973,0.559404,3.726647,6.374723,4.140373,-0.295153,-0.934509,-0.211488,-0.388837,-0.471543,-0.557476,-0.638419,-0.706431,-0.676735,-0.725636,-0.732106,-0.700376,-0.704357,-0.664092,-0.662589,-0.587295,-0.572336,-0.509249,-0.451969,-0.342923,-0.265144,-0.125372,-0.033291,0.180007,0.342968,0.488561,0.666812,0.774173,0.876705,0.928576,0.986316,0.910382,0.863255,0.641475,0.518140,0.200328,0.149040,-0.116618,-0.095898,-0.309881,-0.171999,-0.367206,-0.196668,-0.410299,-0.135654,-0.411668,-0.055497,-0.481788,0.110403,-0.789348,0.000000,0.000000,0.000000,0.000000,0.000000,0.000000,0.000000,0.000000,0.000000,0.000000,0.000000,0.000000,0.000000,0.000000,0.000000,0.000000,0.000000,0.000000,0.000000,0.000000,0.000000,0.000000,0.000000,0.000000,0.000000,0.000000,0.000000,0.000000,0.000000,0.000000,1.000000
4.128218,4.939238,-0.257445,-0.708879,-0.356608,-0.166663,-0.534119,-0.372561,-0.665066,-0.540353,-0.695413,-0.566396,-0.740636,-0.555873,-0.705439,-0.528885,-0.660587,-0.463548,-0.569046,-0.393269,-0.454739,-0.238970,-0.275328,-0.034803,-0.053191,0.248764,0.308116,0.545672,0.616446,0.822788,0.820042,0.972823,0.927649,0.962681,0.813335,0.713440,0.483710,0.297422,0.122292,-0.001045,-0.121040,-0.179961,-0.206592,-0.222677,-0.245627,-0.245340,-0.214162,-0.210904,-0.188645,-0.197128,-0.175078,-0.155359,-0.090102,-0.119421,-0.109434,-0.102858,-0.131165,-0.133197,-0.158379,-0.124301,-0.200859,-0.151100,-0.223073,-0.225100,-0.281627,-0.242910,-0.354584,-0.310402,-0.367182,-0.340788,-0.414363,-0.323251,-0.448256,-0.374747,-0.448030,-0.358991,-0.444353,-0.237745,-0.222881,-0.165024,-0.140203,-0.036204,-0.097718,-0.028112,-0.190224,-0.204419,-0.196260,-0.219932,-0.383484,-0.430814,-0.514316,-0.542590,-0.581708,-0.588805,-0.569762,-0.564086,-0.581893,-0.528729,-0.715274,-1.072235,-0.764905,1.207186,4.551408,6.264492,3.621376,-0.374474,-0.882626,-0.264073,-0.310194,-0.450722,-0.507513,-0.612983,-0.670392,-0.649168,-0.699184,-0.669595,-0.700865,-0.621509,-0.684146,-0.607297,-0.625881,-0.511551,-0.584530,-0.415471,-0.457296,-0.313629,-0.322428,-0.095211,-0.071533,0.187552,0.255717,0.505664,0.523949,0.755591,0.787321,0.951704,0.936875,1.046568,0.930431,0.928265,0.756012,0.654744,0.359661,0.232575,0.030708,-0.016574,-0.182388,-0.117577,-0.278085,-0.153245,-0.314602,-0.067541,-0.410803,0.107968,-0.718144,0.000000,0.000000,0.000000,0.000000,0.000000,0.000000,0.000000,0.000000,0.000000,0.000000,0.000000,0.000000,0.000000,0.000000,0.000000,0.000000,0.000000,0.000000,0.000000,0.000000,0.000000,0.000000,0.000000,0.000000,0.000000,0.000000,0.000000,0.000000,0.000000,0.000000,0.000000,0.000000,1.000000
4.407214,4.485912,-0.652537,-0.695110,-0.447002,-0.152142,-0.580741,-0.399454,-0.722415,-0.594836,-0.747953,-0.637052,-0.759804,-0.649751,-0.703364,-0.635352,-0.685534,-0.582480,-0.580545,-0.539364,-0.485436,-0.404836,-0.377787,-0.269538,-0.156191,-0.006392,0.133354,0.336460,0.468142,0.626612,0.724898,0.909006,0.936137,1.074046,1.041283,1.087911,0.924051,0.918093,0.650217,0.522974,0.195112,0.167796,-0.080949,-0.057366,-0.213715,-0.141288,-0.281746,-0.156899,-0.242104,-0.167433,-0.224585,-0.124436,-0.181579,-0.108222,-0.123023,-0.094648,-0.118411,-0.058472,-0.086026,-0.096551,-0.109332,-0.100974,-0.127454,-0.157249,-0.171834,-0.204707,-0.223269,-0.296410,-0.267656,-0.345021,-0.329945,-0.312782,-0.379017,-0.381063,-0.381175,-0.377037,-0.409473,-0.379052,-0.421702,-0.394344,-0.431979,-0.375355,-0.309813,-0.138065,-0.230799,-0.075314,-0.142458,-0.018874,-0.120968,-0.147056,-0.270870,-0.115286,-0.348556,-0.304326,-0.523239,-0.504277,-0.650067,-0.533103,-0.622994,-0.519199,-0.622851,-0.520483,-0.724431,-1.077550,-0.814768,1.601328,5.002156,6.384020,2.543793,-0.991669,-0.595766,-0.260987,-0.415799,-0.517882,-0.599346,-0.658974,-0.625414,-0.741603,-0.677926,-0.702743,-0.663970,-0.658617,-0.629346,-0.655137,-0.610145,-0.545146,-0.532319,-0.471419,-0.408837,-0.286808,-0.232860,-0.062043,-0.008511,0.225057,0.287005,0.532937,0.567001,0.772488,0.766054,0.971594,0.911628,1.067173,0.869766,0.943268,0.679306,0.625819,0.300970,0.265657,0.008726,0.092365,-0.175150,-0.059420,-0.228515,-0.027893,-0.291527,0.022138,-0.346714,0.203367,-0.635095,0.000000,0.000000,0.000000,0.000000,0.000000,0.000000,0.000000,0.000000,0.000000,0.000000,0.000000,0.000000,0.000000,0.000000,0.000000,0.000000,0.000000,0.000000,0.000000,0.000000,0.000000,0.000000,0.000000,0.000000,0.000000,0.000000,0.000000,0.000000,1.000000
