0.093003,0.569274,0.603751,0.911264,0.887797,1.157844,1.188323,1.373090,1.487588,1.509229,1.629090,1.653773,1.674575,1.659661,1.463886,1.446524,1.209114,1.043974,0.818489,0.575889,0.438040,0.221692,0.114690,0.104445,-0.047920,0.021989,-0.130246,-0.140819,-0.080429,-0.174335,-0.111620,-0.116520,-0.075060,-0.036265,-0.146754,0.050747,0.010841,-0.017487,0.021564,0.022276,0.083475,0.004439,0.038783,0.023621,-0.049972,0.002821,-0.090528,-0.073063,-0.087686,-0.212449,-0.172534,-0.233904,-0.246421,-0.282776,-0.402301,-0.320093,-0.400933,-0.437661,-0.413247,-0.477651,-0.418678,-0.508913,-0.514917,-0.460781,-0.591941,-0.470367,-0.549790,-0.552055,-0.496191,-0.534593,-0.444943,-0.519977,-0.459399,-0.469586,-0.548445,-0.423224,-0.537288,-0.609237,-0.720747,-0.765605,-0.462230,-0.454512,-0.452296,-0.504974,-0.624458,-0.606810,-0.682213,-0.668696,-0.648352,-0.660421,-0.563596,-0.671727,-0.647131,-0.610613,-0.623776,-0.747014,-0.750458,-0.263672,1.475239,4.492377,6.990310,4.971703,-0.741499,-2.836924,-1.665531,-0.417244,-0.496196,-0.507945,-0.524205,-0.679172,-0.613919,-0.639929,-0.628506,-0.564055,-0.605886,-0.480562,-0.598711,-0.557404,-0.412793,-0.492324,-0.393299,-0.445356,-0.314055,-0.268642,-0.278037,-0.070409,-0.085357,0.124311,0.251118,0.315026,0.549975,0.702905,0.814563,0.971784,1.052366,1.226557,1.252476,1.326964,1.297393,1.151139,1.111564,0.873166,0.687590,0.524997,0.253085,0.104682,-0.128692,-0.172682,-0.275921,-0.463044,-0.429395,-0.491399,-0.468312,-0.438843,-0.622623,-0.425163,-0.506526,-0.424845,-0.462024,-0.478653,-0.333988,-0.381718,-0.353605,-0.380070,-0.481346,-0.316899,-0.412312,-0.285474,-0.376674,-0.436065,-0.409659,-0.483715,-0.557069,-0.585637,-0.673622,-0.570322,-0.817828,-0.635992,-0.820474,0.000000,0.000000,0.000000,0.000000,0.000000,0.000000,0.000000,0.000000,1.000000
0.396331,1.032402,1.066121,1.259637,1.369141,1.497409,1.645433,1.695195,1.753165,1.729185,1.560964,1.535171,1.254388,1.090701,0.888699,0.627247,0.452750,0.226330,0.177116,0.066211,-0.132988,-0.074215,-0.167581,-0.104158,-0.121915,-0.274021,-0.080391,-0.165881,-0.076304,-0.126005,-0.129492,0.026137,-0.049108,0.011790,-0.060982,-0.117530,0.024184,-0.058394,0.065930,-0.039226,-0.097059,-0.055999,-0.168622,-0.203076,-0.283435,-0.307616,-0.276574,-0.463850,-0.341315,-0.419095,-0.506907,-0.481793,-0.570732,-0.514544,-0.564025,-0.599477,-0.538334,-0.645797,-0.548516,-0.606001,-0.639715,-0.560083,-0.633210,-0.598275,-0.595267,-0.609063,-0.481149,-0.535428,-0.467219,-0.573422,-0.572463,-0.521126,-0.601026,-0.630225,-0.824531,-0.829561,-0.605216,-0.599468,-0.486426,-0.624191,-0.655568,-0.629097,-0.763967,-0.655278,-0.687204,-0.720984,-0.676671,-0.691832,-0.705491,-0.710740,-0.687983,-0.806417,-0.654477,-0.018509,1.868822,4.780245,6.836766,4.501240,-0.660656,-2.563325,-1.458386,-0.297526,-0.561323,-0.466237,-0.538460,-0.595999,-0.547435,-0.617632,-0.568815,-0.613589,-0.539785,-0.532340,-0.639144,-0.402031,-0.512197,-0.549972,-0.470999,-0.427297,-0.323963,-0.413240,-0.321672,-0.169794,-0.179495,-0.048367,0.062677,0.268926,0.426709,0.481788,0.723984,0.845284,0.981523,1.127167,1.209076,1.395674,1.365462,1.299142,1.385950,1.241137,1.103515,0.846969,0.658555,0.551220,0.216548,0.124328,-0.172853,-0.173742,-0.274694,-0.341561,-0.360178,-0.436464,-0.392634,-0.426061,-0.476694,-0.435403,-0.459742,-0.361972,-0.405502,-0.388446,-0.276229,-0.313739,-0.249438,-0.265754,-0.216434,-0.189127,-0.248336,-0.117574,-0.249375,-0.185125,-0.198469,-0.284625,-0.280543,-0.306153,-0.379963,-0.306307,-0.539287,0.000000,0.000000,0.000000,0.000000,0.000000,0.000000,0.000000,0.000000,0.000000,0.000000,0.000000,0.000000,1.000000
0.167414,0.691472,0.625762,0.964511,1.002532,1.210900,1.294392,1.431914,1.576238,1.545972,1.477793,1.580107,1.383396,1.277636,0.965625,0.846156,0.664996,0.377882,0.251542,-0.021937,-0.010197,-0.127179,-0.178479,-0.203829,-0.278441,-0.216245,-0.284006,-0.299679,-0.281425,-0.280802,-0.195298,-0.248797,-0.206193,-0.104232,-0.154201,-0.066223,-0.115561,-0.018646,-0.054339,-0.048792,0.031358,-0.083199,-0.012682,-0.040021,-0.138810,-0.092096,-0.185502,-0.169143,-0.214605,-0.280799,-0.233903,-0.384758,-0.343622,-0.467054,-0.499449,-0.447002,-0.521840,-0.467019,-0.474361,-0.575253,-0.480222,-0.574897,-0.548017,-0.550245,-0.567851,-0.543409,-0.636717,-0.541840,-0.557196,-0.586882,-0.456561,-0.552285,-0.513348,-0.583596,-0.625400,-0.684185,-0.896896,-0.744850,-0.565206,-0.523864,-0.578332,-0.677413,-0.615552,-0.744092,-0.739686,-0.672484,-0.746871,-0.655048,-0.691736,-0.678738,-0.637377,-0.671723,-0.674668,-0.740558,-0.214637,1.348529,4.314274,6.901553,5.503258,-0.226347,-2.662551,-1.552934,-0.319814,-0.408340,-0.524175,-0.459998,-0.663779,-0.571883,-0.624333,-0.548750,-0.468794,-0.544529,-0.477341,-0.523266,-0.409492,-0.383518,-0.465163,-0.355785,-0.374195,-0.314067,-0.216811,-0.233347,-0.102497,-0.071162,0.096525,0.275144,0.319770,0.539226,0.618614,0.805324,1.012480,1.103316,1.305511,1.295295,1.381835,1.491784,1.331259,1.381032,1.233289,1.067611,0.897570,0.678138,0.535081,0.237004,0.074437,-0.076504,-0.288334,-0.221985,-0.403451,-0.429831,-0.418405,-0.515029,-0.411041,-0.536432,-0.476080,-0.455694,-0.480953,-0.390204,-0.393452,-0.328333,-0.268162,-0.329894,-0.191553,-0.274713,-0.217082,-0.207673,-0.309327,-0.233194,-0.368794,-0.325543,-0.274522,-0.422553,-0.328547,-0.519440,-0.416919,-0.600943,0.000000,0.000000,0.000000,0.000000,0.000000,0.000000,0.000000,0.000000,0.000000,0.000000,0.000000,1.000000
0.207925,0.652881,0.649159,0.893293,1.026659,1.148390,1.307199,1.282760,1.403170,1.447277,1.310412,1.367295,1.179952,1.058336,0.862676,0.691394,0.527181,0.253990,0.131632,-0.040830,-0.190984,-0.130661,-0.338890,-0.288809,-0.348717,-0.372146,-0.319533,-0.424244,-0.346244,-0.353289,-0.357223,-0.268245,-0.293762,-0.190217,-0.195425,-0.198423,-0.101069,-0.182729,-0.101008,-0.138956,-0.202606,-0.137141,-0.298047,-0.169569,-0.233129,-0.277403,-0.271960,-0.382375,-0.348001,-0.421747,-0.449410,-0.466862,-0.567287,-0.442588,-0.575508,-0.574813,-0.566098,-0.651518,-0.539512,-0.581695,-0.582765,-0.539742,-0.627671,-0.520258,-0.647701,-0.586809,-0.512141,-0.592365,-0.450150,-0.498167,-0.493071,-0.510037,-0.536506,-0.468372,-0.632642,-0.689110,-0.747707,-0.612154,-0.374086,-0.495865,-0.529611,-0.595543,-0.661037,-0.650822,-0.715749,-0.640601,-0.595927,-0.690861,-0.575501,-0.621344,-0.557973,-0.726676,-0.775898,-0.261600,1.114219,4.170954,6.887746,5.933517,0.548777,-2.596661,-1.681316,-0.475091,-0.325435,-0.414420,-0.497140,-0.542910,-0.515814,-0.594245,-0.463735,-0.544509,-0.425880,-0.488321,-0.502355,-0.366987,-0.451641,-0.393071,-0.360521,-0.342385,-0.255865,-0.278672,-0.151216,-0.113971,-0.080243,0.114015,0.160638,0.352233,0.488042,0.561298,0.769034,0.909121,1.099775,1.174090,1.225677,1.397004,1.375139,1.478264,1.423576,1.391618,1.295551,1.089740,0.957741,0.668114,0.449144,0.297259,0.051136,-0.045628,-0.159963,-0.252433,-0.295425,-0.450987,-0.354286,-0.366728,-0.441667,-0.343111,-0.434631,-0.360367,-0.377281,-0.339006,-0.246275,-0.290913,-0.209504,-0.199545,-0.193379,-0.125640,-0.257185,-0.196710,-0.261208,-0.271423,-0.269532,-0.325531,-0.262275,-0.326038,-0.420240,-0.298669,-0.491880,0.000000,0.000000,0.000000,0.000000,0.000000,0.000000,0.000000,0.000000,0.000000,0.000000,0.000000,0.000000,1.000000
0.253656,0.463286,0.523060,0.746933,0.853999,1.058318,1.069945,1.182671,1.293350,1.292118,1.377786,1.306572,1.287054,1.158715,0.975001,0.838144,0.539852,0.373069,0.198345,-0.015284,-0.095987,-0.212912,-0.282874,-0.341719,-0.476338,-0.348623,-0.419372,-0.435870,-0.376250,-0.449543,-0.374195,-0.401435,-0.343485,-0.270920,-0.317829,-0.217853,-0.243005,-0.198200,-0.177109,-0.279618,-0.226905,-0.291971,-0.296571,-0.294914,-0.356073,-0.268636,-0.386495,-0.403400,-0.362862,-0.447953,-0.344826,-0.459742,-0.468125,-0.463307,-0.534496,-0.482009,-0.603903,-0.551946,-0.639897,-0.687564,-0.649138,-0.711745,-0.613441,-0.596584,-0.670902,-0.614389,-0.709435,-0.592872,-0.602958,-0.621329,-0.539791,-0.600563,-0.521929,-0.550912,-0.542123,-0.486967,-0.640450,-0.743070,-0.787902,-0.657651,-0.405870,-0.524719,-0.475036,-0.602767,-0.630979,-0.586143,-0.711123,-0.647745,-0.648580,-0.672092,-0.574959,-0.699956,-0.636591,-0.600378,-0.615539,-0.679097,-0.789329,-0.369572,0.423368,2.507262,5.325304,6.910909,4.611990,-0.349021,-2.623574,-1.909826,-0.878440,-0.320189,-0.450011,-0.436056,-0.443383,-0.578557,-0.479817,-0.512385,-0.542101,-0.427996,-0.560191,-0.495694,-0.491736,-0.506988,-0.390690,-0.408359,-0.376590,-0.347668,-0.311419,-0.217206,-0.263342,-0.183384,-0.217760,-0.145838,-0.016747,0.004839,0.226341,0.299474,0.414449,0.626230,0.641020,0.841815,0.926265,0.973020,1.139489,1.187073,1.397250,1.368015,1.331670,1.459484,1.367894,1.317765,1.160814,0.998928,0.875668,0.594030,0.501800,0.316363,0.151966,0.079463,-0.092182,-0.092017,-0.192012,-0.286750,-0.276782,-0.371028,-0.252040,-0.250867,-0.227881,-0.139488,-0.269197,-0.214952,-0.211098,-0.179481,-0.068124,-0.163742,-0.053277,-0.122035,-0.058527,0.008263,-0.106676,0.002569,-0.013760,-0.081136,0.000000,0.000000,0.000000,0.000000,0.000000,0.000000,0.000000,1.000000
-0.105798,0.139785,0.287704,0.363101,0.597636,0.653187,0.857868,0.994300,1.127128,1.289574,1.297778,1.398802,1.422391,1.386007,1.392663,1.248745,1.222873,0.951063,0.738337,0.589128,0.296352,0.154284,0.034558,-0.074977,-0.074358,-0.271138,-0.211579,-0.291752,-0.346125,-0.317151,-0.392390,-0.312078,-0.351926,-0.342681,-0.288163,-0.379167,-0.222786,-0.284483,-0.210827,-0.159407,-0.238455,-0.149756,-0.189456,-0.176489,-0.063891,-0.191654,-0.143892,-0.257079,-0.202100,-0.163367,-0.347851,-0.218197,-0.273883,-0.330666,-0.333930,-0.460174,-0.453539,-0.506392,-0.541433,-0.533263,-0.601676,-0.522803,-0.613585,-0.592532,-0.544402,-0.653745,-0.542720,-0.653652,-0.652025,-0.591263,-0.660743,-0.597639,-0.691993,-0.605890,-0.568419,-0.607147,-0.533477,-0.607272,-0.522889,-0.518232,-0.660562,-0.717709,-0.842699,-0.597757,-0.458342,-0.554041,-0.510647,-0.695583,-0.639318,-0.692707,-0.700351,-0.618323,-0.709890,-0.654903,-0.593729,-0.667717,-0.536982,-0.728608,-0.711213,-0.338145,0.883331,3.908929,6.782391,6.382316,0.974851,-2.565276,-1.823157,-0.532248,-0.314300,-0.503016,-0.503812,-0.525758,-0.593192,-0.526002,-0.525447,-0.595809,-0.464653,-0.553240,-0.455450,-0.436489,-0.471283,-0.386468,-0.416080,-0.352588,-0.337943,-0.267471,-0.139775,-0.164970,-0.008349,0.099733,0.136327,0.327578,0.455199,0.652645,0.803910,0.872874,1.141136,1.136308,1.326962,1.407345,1.448667,1.536237,1.409729,1.452861,1.258641,1.124027,0.976355,0.648702,0.498096,0.264298,0.094432,-0.006673,-0.195096,-0.191269,-0.308767,-0.378234,-0.330407,-0.427035,-0.376415,-0.428558,-0.411301,-0.328937,-0.385063,-0.316789,-0.279825,-0.307096,-0.201993,-0.301630,-0.187564,-0.187422,-0.162027,-0.126732,-0.220631,-0.128675,-0.221767,-0.214324,-0.198206,-0.306010,-0.214962,-0.332207,-0.385169,0.000000,0.000000,0.000000,0.000000,0.000000,0.000000,1.000000
0.161208,0.385667,0.546506,0.674130,0.759015,0.999635,0.970764,1.192396,1.206608,1.295045,1.318402,1.228957,1.251403,1.049498,0.949671,0.774527,0.481661,0.355338,0.118881,-0.004912,-0.123191,-0.275885,-0.266573,-0.397416,-0.426376,-0.402917,-0.485111,-0.430890,-0.495525,-0.450518,-0.395257,-0.445077,-0.364728,-0.355386,-0.357465,-0.276982,-0.369195,-0.241764,-0.271919,-0.218078,-0.220587,-0.282995,-0.205641,-0.303361,-0.273966,-0.283379,-0.369003,-0.279311,-0.421925,-0.414043,-0.443050,-0.577285,-0.461044,-0.590492,-0.595835,-0.570510,-0.697123,-0.649785,-0.732052,-0.683455,-0.647723,-0.686404,-0.598335,-0.716935,-0.688612,-0.612675,-0.668064,-0.556874,-0.575902,-0.588988,-0.545196,-0.616995,-0.550628,-0.754690,-0.767532,-0.826577,-0.638396,-0.474421,-0.603371,-0.577714,-0.612111,-0.760641,-0.625653,-0.738802,-0.664818,-0.660564,-0.702121,-0.620404,-0.655625,-0.597509,-0.613655,-0.820613,-0.624171,-0.249264,1.338427,4.289625,6.908793,5.580820,0.018588,-2.623437,-1.973174,-0.856189,-0.299295,-0.545068,-0.473282,-0.549463,-0.603974,-0.486653,-0.608218,-0.529470,-0.539053,-0.538164,-0.461627,-0.522796,-0.455232,-0.434353,-0.430103,-0.310635,-0.337368,-0.190384,-0.157255,-0.180518,-0.036065,-0.008267,0.165615,0.241145,0.301851,0.561641,0.616300,0.767096,0.913877,0.986682,1.207651,1.206119,1.345101,1.453046,1.460704,1.533879,1.357086,1.379401,1.219433,1.026776,0.906636,0.610992,0.496809,0.270775,0.101747,0.066188,-0.088593,-0.062552,-0.177296,-0.207227,-0.183693,-0.305148,-0.220177,-0.268099,-0.227542,-0.160861,-0.202238,-0.079219,-0.118783,-0.081850,0.004150,0.016849,0.085819,0.059318,0.071670,0.103248,0.044091,0.118518,-0.046384,-0.056643,0.010274,-0.098937,-0.078777,0.000000,0.000000,0.000000,0.000000,0.000000,0.000000,0.000000,0.000000,0.000000,0.000000,0.000000,0.000000,1.000000
-0.149885,-0.056107,0.197850,0.242673,0.417039,0.546313,0.638556,0.856460,0.841755,1.009268,1.091305,1.116835,1.168706,0.989562,1.021549,0.831743,0.653072,0.513874,0.214820,0.105933,-0.139665,-0.292180,-0.338141,-0.490651,-0.460334,-0.587881,-0.603261,-0.591401,-0.709977,-0.618687,-0.675934,-0.622441,-0.564547,-0.600230,-0.475472,-0.519898,-0.476597,-0.390454,-0.378295,-0.305704,-0.337969,-0.318924,-0.293472,-0.347515,-0.277998,-0.441567,-0.459151,-0.376745,-0.513334,-0.445447,-0.534577,-0.561154,-0.532653,-0.696936,-0.628889,-0.604338,-0.676784,-0.657306,-0.675680,-0.637399,-0.713742,-0.746508,-0.668319,-0.781864,-0.680363,-0.753353,-0.627859,-0.540098,-0.643011,-0.616923,-0.605550,-0.617954,-0.555932,-0.739457,-0.838607,-0.798704,-0.601713,-0.438853,-0.568382,-0.540500,-0.644521,-0.703849,-0.637770,-0.713773,-0.600836,-0.650349,-0.646371,-0.583477,-0.628094,-0.482261,-0.614083,-0.714171,-0.318448,0.386297,2.867894,5.720107,6.903894,3.331668,-1.703644,-2.535952,-1.432637,-0.429679,-0.381112,-0.487997,-0.371521,-0.459796,-0.460119,-0.385445,-0.463345,-0.363109,-0.406090,-0.402458,-0.307674,-0.382538,-0.221034,-0.234733,-0.285185,-0.186100,-0.253319,-0.090661,-0.161332,-0.094530,0.063288,0.063750,0.250045,0.310040,0.378866,0.639615,0.686813,0.922126,1.013789,1.081831,1.279462,1.278163,1.445398,1.464493,1.551934,1.633661,1.515581,1.460278,1.274584,1.101751,0.935362,0.629728,0.555690,0.336215,0.156646,0.091994,-0.031940,-0.021101,-0.086434,-0.115550,-0.164731,-0.205957,-0.047171,-0.110951,-0.073831,-0.000616,-0.065369,0.073541,0.008269,0.051669,0.098143,0.038590,0.151474,0.135274,0.080067,0.127696,0.029625,0.070415,0.008761,0.032333,0.016000,-0.150496,-0.054698,0.000000,0.000000,0.000000,0.000000,0.000000,0.000000,0.000000,0.000000,0.000000,0.000000,0.000000,0.000000,1.000000
-0.084998,0.164571,0.380679,0.465019,0.688252,0.802415,0.859728,1.080121,1.066330,1.254599,1.261646,1.366738,1.439118,1.323372,1.256878,1.066154,0.880181,0.707493,0.381831,0.313923,0.069937,-0.104534,-0.182002,-0.302768,-0.296325,-0.361805,-0.394966,-0.445512,-0.485754,-0.313879,-0.395570,-0.337474,-0.278836,-0.332660,-0.193599,-0.263765,-0.212362,-0.168975,-0.231249,-0.102601,-0.139183,-0.179903,-0.143578,-0.238840,-0.198550,-0.263725,-0.234000,-0.262576,-0.435629,-0.315284,-0.451663,-0.448500,-0.463418,-0.553382,-0.485500,-0.606646,-0.602191,-0.633963,-0.656594,-0.525121,-0.620724,-0.676292,-0.608885,-0.724529,-0.600673,-0.646181,-0.631771,-0.545580,-0.615933,-0.548493,-0.585592,-0.569039,-0.463258,-0.640603,-0.645275,-0.874086,-0.827318,-0.524721,-0.528388,-0.447856,-0.592931,-0.639855,-0.629057,-0.697065,-0.589847,-0.694480,-0.624274,-0.622663,-0.735108,-0.607300,-0.653463,-0.707296,-0.756951,-0.509757,0.467671,2.723613,5.600810,6.919893,4.243814,-0.663770,-2.751847,-1.803668,-0.480348,-0.412463,-0.449195,-0.429252,-0.479061,-0.462543,-0.502840,-0.440743,-0.506498,-0.456805,-0.447686,-0.471076,-0.406427,-0.433708,-0.367388,-0.310718,-0.336292,-0.246230,-0.294464,-0.214281,-0.159417,-0.177878,-0.003509,-0.020705,0.136873,0.226189,0.271076,0.436818,0.521565,0.701327,0.840256,0.894017,1.217537,1.155477,1.273398,1.383783,1.346012,1.399895,1.258004,1.169612,1.049856,0.813870,0.611799,0.333551,0.239783,0.091676,-0.073610,-0.083789,-0.243244,-0.278078,-0.304276,-0.350229,-0.246696,-0.372300,-0.325834,-0.270920,-0.298157,-0.167549,-0.276198,-0.158948,-0.095715,-0.154724,-0.111078,-0.136654,-0.043651,-0.072636,-0.150230,-0.056162,-0.190350,-0.168834,-0.188844,-0.294068,-0.207038,-0.395412,0.000000,0.000000,0.000000,0.000000,0.000000,0.000000,0.000000,0.000000,0.000000,0.000000,0.000000,1.000000
0.001996,0.223246,0.220314,0.414028,0.462165,0.667535,0.761072,0.848952,1.130816,1.074704,1.190225,1.292307,1.249129,1.308209,1.154909,1.089717,0.955054,0.744971,0.538420,0.288876,0.194677,0.058513,-0.102169,-0.101659,-0.267343,-0.281514,-0.323703,-0.348698,-0.265685,-0.375776,-0.336349,-0.278028,-0.311844,-0.177376,-0.295732,-0.164579,-0.125096,-0.163742,-0.138640,-0.146195,-0.073937,-0.086633,-0.176782,-0.068016,-0.218283,-0.172095,-0.219440,-0.287475,-0.242701,-0.369133,-0.351482,-0.386000,-0.468557,-0.452117,-0.539947,-0.500292,-0.530455,-0.562702,-0.551545,-0.644855,-0.573917,-0.588819,-0.729772,-0.567908,-0.631549,-0.597718,-0.579194,-0.557053,-0.539243,-0.662649,-0.596655,-0.543555,-0.643899,-0.667374,-0.884522,-0.685797,-0.466303,-0.536070,-0.500148,-0.605880,-0.604204,-0.674917,-0.748929,-0.615730,-0.689410,-0.649856,-0.620163,-0.669692,-0.592929,-0.673485,-0.752453,-0.792920,-0.530454,0.530931,2.813902,5.794384,7.054371,3.868560,-1.258991,-2.649930,-1.348144,-0.383658,-0.425988,-0.453731,-0.541617,-0.527810,-0.539071,-0.611254,-0.540769,-0.583704,-0.532119,-0.499468,-0.552483,-0.414890,-0.493905,-0.477988,-0.417983,-0.443425,-0.336309,-0.386063,-0.254243,-0.267210,-0.174660,-0.030177,-0.042507,0.103663,0.202246,0.314566,0.471892,0.598036,0.779039,0.926292,0.981770,1.214738,1.203106,1.328667,1.375319,1.322203,1.414502,1.240344,1.199345,1.020737,0.763585,0.624326,0.323045,0.219277,0.023047,-0.125066,-0.135545,-0.270350,-0.304336,-0.275797,-0.342396,-0.296061,-0.424059,-0.345386,-0.305597,-0.350215,-0.286235,-0.295591,-0.105714,-0.153507,-0.238901,-0.123680,-0.203779,-0.095426,-0.092500,-0.177642,-0.097285,-0.227459,-0.192381,-0.172310,-0.250193,-0.226295,-0.400181,0.000000,0.000000,0.000000,0.000000,0.000000,0.000000,0.000000,0.000000,0.000000,0.000000,0.000000,0.000000,1.000000
0.037170,0.155499,0.273457,0.431680,0.566015,0.750480,0.901008,0.959595,1.201623,1.178607,1.323726,1.349451,1.312689,1.392920,1.210085,1.175420,0.967698,0.719361,0.563399,0.256752,0.163260,-0.058156,-0.181307,-0.202662,-0.345878,-0.356469,-0.345136,-0.400815,-0.363482,-0.500250,-0.379487,-0.385025,-0.397012,-0.352342,-0.332450,-0.139233,-0.247044,-0.274828,-0.183786,-0.263672,-0.119896,-0.182620,-0.215696,-0.165680,-0.307381,-0.219012,-0.264155,-0.289602,-0.333530,-0.434574,-0.343367,-0.454368,-0.500369,-0.458863,-0.604508,-0.559688,-0.586029,-0.597244,-0.593223,-0.650816,-0.595901,-0.663866,-0.615505,-0.580431,-0.691567,-0.583043,-0.676881,-0.675232,-0.618085,-0.631597,-0.500025,-0.592234,-0.564642,-0.557702,-0.733047,-0.717693,-0.919037,-0.761598,-0.499252,-0.581941,-0.539750,-0.665411,-0.656660,-0.670917,-0.817953,-0.708756,-0.700897,-0.647456,-0.607899,-0.690495,-0.559370,-0.690278,-0.555565,-0.718240,-0.622593,-0.070689,1.465756,4.170743,6.359507,6.254394,2.336898,-1.859405,-2.490715,-1.350844,-0.380577,-0.282493,-0.510830,-0.390117,-0.440177,-0.521410,-0.426388,-0.540609,-0.454774,-0.448240,-0.493597,-0.422997,-0.474134,-0.376687,-0.420819,-0.425957,-0.305347,-0.409129,-0.292160,-0.227479,-0.253586,-0.109196,-0.110311,0.046244,0.079668,0.175429,0.348397,0.447415,0.571928,0.624659,0.792816,0.966520,0.984463,1.151978,1.199127,1.250728,1.378271,1.329056,1.354376,1.193578,1.092705,0.976726,0.706385,0.605396,0.351152,0.135581,0.115148,-0.138637,-0.096107,-0.226683,-0.246137,-0.233221,-0.330233,-0.272147,-0.332926,-0.297216,-0.251319,-0.308682,-0.194998,-0.260008,-0.209563,-0.139035,-0.192970,-0.044678,-0.189002,-0.076012,-0.023666,-0.113862,-0.052514,-0.136092,-0.099368,-0.022787,-0.177232,0.000000,0.000000,0.000000,0.000000,0.000000,0.000000,0.000000,0.000000,0.000000,0.000000,1.000000
-0.035315,0.129630,0.211034,0.394483,0.468452,0.601558,0.635850,0.852512,0.959340,1.008098,1.167107,1.188859,1.269260,1.367036,1.312875,1.335646,1.144222,1.085745,0.919796,0.682838,0.581172,0.306484,0.141837,0.098967,-0.143918,-0.073127,-0.241345,-0.207603,-0.241353,-0.301464,-0.262746,-0.313683,-0.275541,-0.234342,-0.293740,-0.166376,-0.260156,-0.170593,-0.141036,-0.160118,-0.040867,-0.171655,-0.057925,-0.010075,-0.107009,-0.030495,-0.135392,-0.068813,-0.027185,-0.143050,-0.079638,-0.186399,-0.166092,-0.162933,-0.283813,-0.248034,-0.342105,-0.359811,-0.373411,-0.461183,-0.383294,-0.512060,-0.485751,-0.465492,-0.580744,-0.462494,-0.559581,-0.516077,-0.530150,-0.621432,-0.557772,-0.602223,-0.567878,-0.577578,-0.587691,-0.471055,-0.583856,-0.489116,-0.466736,-0.617354,-0.466565,-0.539893,-0.572477,-0.689330,-0.813790,-0.675655,-0.547359,-0.473409,-0.447288,-0.590694,-0.585127,-0.693368,-0.672578,-0.632009,-0.714569,-0.624940,-0.677604,-0.635588,-0.619230,-0.664476,-0.617661,-0.679589,-0.802662,-0.656311,-0.346746,0.712230,3.092762,6.202927,7.322690,3.856272,-0.992560,-2.719018,-1.792192,-0.591276,-0.346090,-0.395243,-0.503470,-0.500677,-0.548061,-0.546454,-0.483718,-0.591172,-0.539117,-0.491786,-0.523978,-0.453854,-0.482449,-0.446149,-0.411179,-0.438988,-0.344564,-0.407248,-0.336202,-0.292059,-0.310423,-0.180172,-0.213993,-0.057179,0.010834,-0.003768,0.190243,0.263800,0.483923,0.600190,0.644580,0.914882,0.928780,1.044465,1.157573,1.178002,1.353673,1.242376,1.298260,1.159485,1.034753,0.997089,0.734754,0.634172,0.455540,0.206592,0.139663,-0.101862,-0.149314,-0.202149,-0.366529,-0.360086,-0.421439,-0.326050,-0.379654,-0.409583,-0.321773,-0.384135,-0.282102,-0.304499,-0.338183,-0.196432,-0.243417,-0.215371,-0.168062,-0.193885,-0.120666,-0.206501,-0.158032,-0.153083,-0.217400,-0.154130,-0.350341,1.000000
-0.044796,0.140779,0.085401,0.307497,0.356991,0.597475,0.689326,0.753715,1.008346,1.026683,1.139635,1.252149,1.271246,1.447522,1.326899,1.393838,1.238120,1.132057,1.079328,0.825571,0.725390,0.544893,0.300003,0.238349,-0.010369,-0.038576,-0.109409,-0.258212,-0.258390,-0.310509,-0.218719,-0.276682,-0.299711,-0.213596,-0.280100,-0.167019,-0.208668,-0.221424,-0.092025,-0.137912,-0.108051,-0.061414,-0.090269,-0.011107,-0.112104,-0.038557,-0.065306,-0.095768,-0.071706,-0.222370,-0.162264,-0.189591,-0.295753,-0.266136,-0.404469,-0.364520,-0.427681,-0.468214,-0.427448,-0.531678,-0.480439,-0.504565,-0.578810,-0.482091,-0.572956,-0.564088,-0.584884,-0.592282,-0.545230,-0.643918,-0.589754,-0.583313,-0.616432,-0.568558,-0.617076,-0.505241,-0.508775,-0.536585,-0.495807,-0.531839,-0.505198,-0.552889,-0.750816,-0.807667,-0.783320,-0.459300,-0.514752,-0.590967,-0.568897,-0.662008,-0.638061,-0.744938,-0.729929,-0.637459,-0.709054,-0.621206,-0.651717,-0.721773,-0.637107,-0.717696,-0.618262,-0.768512,-0.859945,-0.421903,0.332733,2.830615,5.814847,7.293570,4.202626,-1.205244,-2.767258,-1.923151,-0.727475,-0.276555,-0.509939,-0.397108,-0.541675,-0.559492,-0.524758,-0.613119,-0.491135,-0.529111,-0.545342,-0.427546,-0.526733,-0.426629,-0.469192,-0.450625,-0.330238,-0.432061,-0.257136,-0.320476,-0.225448,-0.121490,-0.160895,0.058065,0.111226,0.210376,0.421507,0.457808,0.630846,0.743720,0.856046,1.011707,1.025651,1.211206,1.232842,1.277274,1.329643,1.183375,1.147618,0.990451,0.796182,0.708277,0.427521,0.306128,0.071658,-0.040532,-0.131231,-0.197810,-0.171042,-0.277878,-0.305788,-0.253674,-0.350033,-0.260227,-0.268111,-0.276268,-0.167378,-0.208695,-0.115456,-0.152562,-0.107142,-0.053506,-0.111177,-0.018602,-0.106053,-0.108774,-0.069306,-0.157478,-0.129813,-0.243825,-0.215343,-0.278248,-0.330655,-0.361753,0.000000,1.000000
0.005226,-0.037455,0.227160,0.218097,0.434641,0.505461,0.656083,0.773852,0.815270,0.984680,1.006245,1.050844,1.096302,0.936204,0.920365,0.727900,0.567952,0.450669,0.184937,0.059723,-0.173894,-0.271536,-0.366934,-0.419263,-0.396931,-0.516886,-0.515318,-0.485975,-0.572487,-0.469027,-0.503757,-0.480014,-0.392300,-0.426199,-0.331108,-0.383871,-0.310706,-0.288315,-0.326541,-0.238184,-0.350050,-0.310738,-0.313103,-0.372614,-0.370218,-0.467058,-0.444230,-0.504214,-0.578774,-0.533038,-0.660804,-0.624630,-0.648673,-0.753814,-0.670859,-0.783553,-0.753391,-0.797615,-0.855828,-0.740225,-0.851662,-0.789140,-0.784537,-0.802832,-0.726331,-0.888458,-0.799932,-0.792031,-0.816635,-0.767067,-0.810062,-0.773881,-0.734123,-0.777842,-0.675845,-0.718320,-0.671964,-0.741159,-0.782746,-0.678752,-0.879150,-0.916890,-0.982506,-0.884590,-0.602662,-0.759839,-0.643207,-0.762456,-0.800180,-0.762767,-0.841515,-0.790090,-0.784333,-0.758609,-0.629956,-0.770749,-0.671726,-0.665366,-0.714646,-0.594284,-0.664881,-0.514397,-0.681902,-0.655341,-0.204339,0.850057,3.853486,6.886598,6.026979,0.318034,-2.644957,-1.665092,-0.525495,-0.243158,-0.329250,-0.353217,-0.327644,-0.403479,-0.441381,-0.292085,-0.393308,-0.281373,-0.316167,-0.276355,-0.191349,-0.262224,-0.163488,-0.178549,-0.108311,-0.017399,-0.060153,0.121747,0.104208,0.200236,0.345643,0.413082,0.643636,0.719605,0.881189,1.144827,1.079890,1.255047,1.309287,1.414608,1.515903,1.475137,1.567677,1.450745,1.370188,1.330365,1.108057,1.007323,0.739201,0.594506,0.489653,0.339353,0.306003,0.196296,0.210367,0.190525,0.122839,0.201575,0.199679,0.225754,0.302964,0.228716,0.332519,0.306060,0.369488,0.402467,0.411558,0.508135,0.447108,0.484691,0.513321,0.440838,0.521247,0.476239,0.425878,0.448608,0.357056,0.389806,0.246211,0.293709,0.272040,0.224694,0.000000,1.000000
-0.092781,0.133828,0.305703,0.562770,0.472455,0.708911,0.712536,0.882891,0.925843,0.921456,0.994183,0.845788,0.789522,0.710122,0.475460,0.367399,0.053155,-0.049497,-0.201929,-0.324404,-0.378939,-0.481353,-0.454930,-0.496681,-0.551284,-0.452588,-0.484122,-0.414312,-0.376190,-0.429459,-0.319122,-0.361072,-0.266725,-0.262951,-0.220114,-0.141728,-0.212338,-0.146607,-0.149130,-0.208177,-0.112572,-0.200622,-0.212663,-0.225426,-0.295699,-0.285147,-0.432437,-0.357365,-0.407525,-0.458728,-0.412461,-0.525064,-0.451876,-0.507147,-0.577394,-0.571576,-0.600962,-0.561855,-0.664277,-0.645160,-0.545096,-0.688163,-0.572312,-0.611570,-0.621109,-0.555631,-0.664418,-0.538698,-0.525928,-0.578347,-0.498565,-0.512117,-0.447349,-0.543982,-0.510545,-0.460633,-0.735864,-0.677393,-0.580620,-0.394479,-0.331826,-0.482613,-0.466460,-0.542017,-0.588188,-0.558565,-0.625151,-0.479458,-0.543500,-0.547213,-0.510820,-0.542651,-0.464236,-0.530908,-0.485165,-0.389214,-0.451468,-0.459008,-0.529530,-0.099346,1.135658,4.219769,7.456278,6.709177,0.490246,-2.835626,-1.753238,-0.277443,-0.184811,-0.231300,-0.125620,-0.317236,-0.241467,-0.332642,-0.220065,-0.197765,-0.265000,-0.170071,-0.236795,-0.206580,-0.142090,-0.175421,-0.061505,-0.088612,-0.064995,0.038641,-0.025020,0.073680,0.097282,0.252852,0.444878,0.486667,0.686830,0.780195,0.941475,1.060722,1.083674,1.306977,1.290810,1.409488,1.479600,1.367089,1.446245,1.297534,1.223365,1.094023,0.854168,0.729498,0.402778,0.301570,0.161516,0.004200,-0.018649,-0.188470,-0.158953,-0.211143,-0.334642,-0.212430,-0.302986,-0.241835,-0.245430,-0.227702,-0.156890,-0.220230,-0.101297,-0.132187,-0.138028,-0.057446,-0.183597,-0.051306,-0.056488,-0.126524,-0.033894,-0.117725,-0.072270,-0.130107,-0.279464,-0.185563,-0.317136,-0.257139,-0.403532,0.000000,0.000000,0.000000,0.000000,0.000000,0.000000,1.000000
0.402672,1.237273,1.116375,1.407347,1.395878,1.519821,1.663024,1.669701,1.786651,1.820579,1.720524,1.806630,1.615685,1.598602,1.403013,1.231438,1.061384,0.778946,0.702129,0.548204,0.427188,0.396461,0.230521,0.304860,0.184293,0.142640,0.222648,0.143902,0.215773,0.192205,0.237442,0.276126,0.229592,0.358867,0.279563,0.337170,0.350343,0.268342,0.406144,0.354484,0.325931,0.402704,0.303406,0.389411,0.250382,0.196447,0.230601,0.140623,0.168304,0.054573,0.026999,0.030121,-0.102449,0.012878,-0.120326,-0.128472,-0.162308,-0.248971,-0.194593,-0.275633,-0.288663,-0.249963,-0.411247,-0.344459,-0.411944,-0.397758,-0.323806,-0.416050,-0.327814,-0.393419,-0.342172,-0.361980,-0.385592,-0.292724,-0.341289,-0.326691,-0.357380,-0.376123,-0.403530,-0.642526,-0.635518,-0.561954,-0.402630,-0.344061,-0.468252,-0.464047,-0.508532,-0.628886,-0.590776,-0.693821,-0.590015,-0.578436,-0.638024,-0.557865,-0.646399,-0.644471,-0.637201,-0.658188,-0.548113,-0.636532,-0.570895,-0.734531,-0.536370,0.070825,1.654608,4.399131,6.409298,5.111096,0.222505,-2.674162,-2.252475,-1.079216,-0.463235,-0.550180,-0.582661,-0.593791,-0.643034,-0.694161,-0.609589,-0.643544,-0.618573,-0.678205,-0.650432,-0.588702,-0.692986,-0.577636,-0.581511,-0.619003,-0.533725,-0.638977,-0.465015,-0.436213,-0.452375,-0.307308,-0.348569,-0.143792,-0.174181,-0.044361,0.166486,0.234390,0.398323,0.455577,0.530219,0.726982,0.667543,0.801119,0.868030,0.897826,0.896682,0.781256,0.792736,0.595970,0.453950,0.355083,0.050852,-0.014306,-0.247076,-0.415496,-0.474336,-0.645653,-0.601522,-0.733098,-0.757972,-0.745339,-0.833418,-0.748390,-0.848747,-0.791109,-0.740432,-0.806207,-0.736948,-0.792180,-0.689556,-0.680921,-0.755287,-0.620333,-0.733173,-0.653427,-0.725586,-0.816517,-0.756796,-0.753231,-0.847512,-0.802131,-1.109600,0.000000,0.000000,1.000000
0.363910,0.888144,0.879002,1.146121,1.136335,1.352797,1.324181,1.481520,1.584578,1.563454,1.683231,1.738632,1.758757,1.746478,1.638721,1.658981,1.435169,1.356133,1.212050,0.964844,0.900187,0.674960,0.542661,0.481146,0.328567,0.384562,0.234658,0.251680,0.227867,0.177510,0.235912,0.152489,0.208259,0.252984,0.184754,0.263790,0.192703,0.316747,0.287100,0.254543,0.348548,0.269568,0.318685,0.277201,0.161215,0.262179,0.206768,0.194482,0.131083,0.028810,0.121877,0.005819,-0.023877,-0.063693,-0.110470,-0.133431,-0.262085,-0.232247,-0.233776,-0.349808,-0.314967,-0.393037,-0.353273,-0.361142,-0.482946,-0.411963,-0.470968,-0.458092,-0.443803,-0.510835,-0.382201,-0.485263,-0.397568,-0.402837,-0.514749,-0.490635,-0.618831,-0.653493,-0.761992,-0.815755,-0.573770,-0.527032,-0.493457,-0.563016,-0.655753,-0.649860,-0.722007,-0.717302,-0.704227,-0.778647,-0.657481,-0.782810,-0.699884,-0.676116,-0.722326,-0.660038,-0.850379,-0.517069,0.178410,2.193081,5.107452,6.384279,3.561220,-1.305395,-2.724293,-1.609045,-0.671472,-0.538418,-0.640729,-0.694756,-0.685144,-0.744088,-0.728567,-0.691518,-0.783045,-0.665602,-0.713337,-0.682717,-0.682881,-0.733139,-0.587269,-0.679052,-0.629794,-0.566478,-0.575810,-0.472942,-0.542151,-0.436417,-0.374804,-0.362749,-0.195930,-0.172465,0.012260,0.124678,0.163494,0.377398,0.410387,0.507857,0.567893,0.603686,0.761594,0.780454,0.872437,0.859890,0.846131,0.797870,0.595621,0.483931,0.366237,0.123670,0.014132,-0.214056,-0.358470,-0.452426,-0.570218,-0.612959,-0.702081,-0.699918,-0.656200,-0.781127,-0.695599,-0.789608,-0.708504,-0.762850,-0.741901,-0.649142,-0.689557,-0.675731,-0.603719,-0.671578,-0.553591,-0.628352,-0.561213,-0.620474,-0.606355,-0.629781,-0.662998,-0.747989,-0.608394,-0.856704,0.000000,0.000000,0.000000,0.000000,0.000000,0.000000,0.000000,1.000000
0.213073,0.324405,0.492272,0.633706,0.659843,0.903574,0.927355,1.043226,1.097683,1.146097,1.306657,1.336438,1.426161,1.422036,1.397763,1.355296,1.127693,1.017161,0.880326,0.629167,0.500665,0.265509,0.098864,0.008968,-0.129662,-0.163637,-0.272171,-0.256888,-0.223224,-0.343856,-0.266274,-0.352341,-0.280906,-0.322700,-0.317796,-0.199153,-0.262549,-0.226477,-0.171590,-0.220196,-0.119723,-0.171012,-0.131160,-0.158430,-0.185175,-0.161098,-0.256916,-0.271498,-0.229052,-0.314692,-0.272034,-0.381960,-0.367103,-0.448384,-0.497121,-0.423257,-0.563557,-0.524042,-0.535722,-0.619681,-0.554555,-0.605915,-0.604250,-0.648731,-0.709174,-0.576925,-0.683590,-0.664445,-0.688754,-0.740731,-0.647008,-0.760642,-0.709712,-0.674906,-0.755106,-0.625410,-0.616388,-0.577593,-0.581655,-0.664861,-0.569627,-0.688098,-0.737509,-0.813914,-0.943851,-0.700416,-0.606627,-0.622986,-0.616006,-0.787020,-0.677751,-0.763122,-0.727444,-0.699149,-0.721517,-0.655703,-0.757710,-0.689778,-0.643020,-0.736920,-0.585032,-0.859073,-0.605765,-0.040355,1.751876,4.940374,6.973235,4.925117,-0.273494,-2.683063,-1.960059,-0.928833,-0.364963,-0.544879,-0.569638,-0.472424,-0.594470,-0.587820,-0.543368,-0.572220,-0.493122,-0.574399,-0.501392,-0.486228,-0.536596,-0.431389,-0.512240,-0.465335,-0.376712,-0.385602,-0.271815,-0.290667,-0.160475,-0.131817,-0.099595,0.031227,0.062581,0.285495,0.369682,0.441958,0.689207,0.763940,0.965079,1.051891,1.120982,1.319169,1.255878,1.381329,1.433916,1.376682,1.438431,1.258894,1.195717,1.025473,0.820956,0.730891,0.411212,0.257667,0.123115,0.017124,0.006731,-0.159025,-0.199570,-0.195220,-0.300036,-0.202058,-0.240859,-0.179879,-0.200705,-0.227084,-0.155772,-0.233862,-0.117733,-0.052270,-0.132300,-0.051778,-0.118425,-0.034141,-0.061705,-0.031338,0.069658,-0.006935,-0.002801,0.047938,-0.061473,0.000000,0.000000,1.000000
-0.360358,-0.312492,-0.118341,-0.049258,0.115516,0.254786,0.311452,0.539507,0.616950,0.753436,0.878773,0.909069,1.081447,0.995514,1.061000,1.049495,0.909484,0.871980,0.683715,0.563779,0.413121,0.130620,0.047995,-0.184941,-0.229473,-0.346514,-0.426689,-0.428662,-0.542646,-0.458828,-0.503442,-0.552840,-0.492315,-0.587597,-0.520192,-0.442013,-0.436838,-0.333177,-0.401068,-0.335015,-0.303491,-0.304721,-0.224661,-0.265459,-0.202757,-0.209640,-0.206618,-0.166348,-0.295096,-0.207861,-0.242163,-0.341137,-0.271995,-0.438227,-0.470365,-0.516207,-0.612923,-0.527266,-0.559056,-0.559368,-0.545797,-0.610587,-0.590190,-0.658685,-0.626382,-0.624100,-0.713179,-0.605335,-0.718739,-0.642607,-0.621182,-0.671249,-0.605372,-0.636492,-0.534157,-0.519277,-0.564981,-0.480171,-0.588592,-0.568911,-0.643268,-0.717413,-0.707145,-0.607863,-0.430939,-0.460822,-0.532623,-0.518877,-0.663394,-0.614408,-0.647265,-0.665432,-0.634240,-0.643178,-0.544238,-0.558613,-0.612628,-0.518006,-0.693910,-0.699850,-0.443216,0.374590,2.716073,5.769644,7.405360,4.149208,-1.145058,-2.590355,-1.589041,-0.428898,-0.283041,-0.476018,-0.363864,-0.521530,-0.441028,-0.438144,-0.431682,-0.392921,-0.453014,-0.357336,-0.319808,-0.403993,-0.323862,-0.327845,-0.259224,-0.270815,-0.226022,-0.179460,-0.221832,-0.071646,-0.040160,0.048494,0.222465,0.222314,0.384263,0.524814,0.618943,0.844980,0.886071,1.112750,1.214311,1.259464,1.449239,1.432577,1.612553,1.553531,1.503468,1.489349,1.274064,1.215059,0.899832,0.642392,0.462755,0.154857,0.113785,-0.041191,-0.088513,-0.088175,-0.249092,-0.177403,-0.269293,-0.226128,-0.171990,-0.261675,-0.152514,-0.194325,-0.132239,-0.026404,-0.015845,0.070332,0.040303,0.066691,0.179687,0.020357,0.101201,0.023014,0.055067,0.155483,0.010658,0.019495,-0.020394,-0.065170,-0.078811,0.000000,0.000000,0.000000,0.000000,1.000000
-0.089216,0.175877,0.279705,0.408442,0.624507,0.671652,0.918016,0.999217,1.066929,1.250426,1.235834,1.427951,1.341727,1.310115,1.274049,1.056406,0.993210,0.646546,0.400206,0.197453,-0.110103,-0.146725,-0.315719,-0.349029,-0.362293,-0.523452,-0.442839,-0.550062,-0.485761,-0.448644,-0.529440,-0.419570,-0.464259,-0.393989,-0.285538,-0.278262,-0.182733,-0.226238,-0.181770,-0.080879,-0.239483,-0.156681,-0.238854,-0.201682,-0.097674,-0.258813,-0.233334,-0.294187,-0.316470,-0.367985,-0.449408,-0.370488,-0.477441,-0.503198,-0.480885,-0.616572,-0.525737,-0.636495,-0.585819,-0.592326,-0.653086,-0.608725,-0.709748,-0.659836,-0.633457,-0.672916,-0.547454,-0.686807,-0.640764,-0.577637,-0.583099,-0.486031,-0.555543,-0.545160,-0.503967,-0.690544,-0.718471,-0.855273,-0.631001,-0.395892,-0.575043,-0.512283,-0.583049,-0.606263,-0.613411,-0.676713,-0.579501,-0.673363,-0.627833,-0.605760,-0.633126,-0.523778,-0.602040,-0.758308,-0.501153,-0.061684,2.077984,5.148795,7.170510,4.687315,-1.049796,-2.688154,-1.697946,-0.436459,-0.353754,-0.480252,-0.329211,-0.464226,-0.486857,-0.447280,-0.512042,-0.440817,-0.525389,-0.498398,-0.441264,-0.424244,-0.323869,-0.362330,-0.402421,-0.344191,-0.344569,-0.232621,-0.184870,-0.104024,0.009741,0.025127,0.164131,0.227580,0.397528,0.618425,0.630950,0.859619,1.007747,1.145679,1.307056,1.296046,1.444399,1.437422,1.507013,1.458106,1.228145,1.247616,0.888744,0.659823,0.486332,0.228718,0.150531,-0.033755,-0.085503,-0.103030,-0.234885,-0.171359,-0.247952,-0.262478,-0.187715,-0.275619,-0.099038,-0.206583,-0.188949,-0.124605,-0.117448,-0.038814,-0.074170,0.017149,-0.072198,-0.068291,0.038277,-0.064904,-0.096484,-0.034992,-0.135730,-0.100600,-0.222912,-0.229256,-0.234172,-0.307619,-0.251956,0.000000,0.000000,0.000000,0.000000,0.000000,0.000000,0.000000,0.000000,0.000000,0.000000,1.000000
-0.028017,0.413199,0.554774,0.616764,0.824781,0.998708,1.125522,1.304415,1.278978,1.448269,1.422892,1.513079,1.436769,1.217298,1.224240,0.849614,0.617713,0.436120,0.169099,0.095120,-0.104879,-0.142395,-0.174974,-0.300955,-0.236851,-0.320648,-0.326586,-0.255591,-0.343495,-0.154027,-0.285246,-0.242732,-0.194587,-0.170686,-0.104703,-0.129063,-0.043783,-0.137222,-0.125731,-0.015112,-0.139934,-0.147777,-0.104753,-0.195958,-0.170364,-0.292525,-0.298977,-0.299162,-0.391365,-0.288776,-0.422288,-0.427260,-0.434417,-0.558712,-0.488505,-0.548359,-0.542012,-0.563807,-0.609730,-0.522456,-0.674751,-0.655157,-0.610763,-0.651348,-0.536269,-0.643761,-0.629037,-0.565631,-0.652086,-0.482540,-0.591947,-0.569788,-0.617698,-0.674208,-0.687277,-0.861174,-0.881076,-0.757871,-0.626435,-0.548270,-0.536310,-0.542160,-0.624211,-0.726728,-0.649504,-0.690040,-0.616556,-0.597660,-0.671547,-0.567196,-0.640215,-0.554483,-0.757867,-0.678470,-0.007359,1.693474,4.780966,6.949625,5.390103,0.018576,-2.470824,-1.486924,-0.334903,-0.433394,-0.430416,-0.463070,-0.513838,-0.504814,-0.537492,-0.546586,-0.633125,-0.552882,-0.521747,-0.517431,-0.411956,-0.496883,-0.414120,-0.429693,-0.362048,-0.243918,-0.254402,-0.115702,-0.036876,0.017124,0.228697,0.262930,0.512090,0.655013,0.793290,1.043238,1.080140,1.259803,1.348820,1.404628,1.493478,1.386595,1.415428,1.271024,1.072407,0.908475,0.656853,0.456491,0.230345,0.103209,0.012276,-0.198294,-0.162246,-0.244073,-0.362582,-0.329308,-0.344270,-0.255534,-0.289207,-0.319333,-0.230243,-0.283995,-0.180939,-0.185272,-0.179276,-0.089257,-0.143887,-0.189302,-0.177824,-0.219638,-0.116265,-0.223283,-0.154130,-0.202828,-0.271464,-0.226265,-0.356746,-0.358289,-0.435532,-0.500298,-0.409819,-0.578197,0.000000,0.000000,0.000000,0.000000,0.000000,0.000000,0.000000,0.000000,0.000000,0.000000,0.000000,1.000000
0.283741,0.762146,0.779478,1.075288,1.048557,1.269365,1.295147,1.393360,1.426994,1.359005,1.362527,1.233601,1.039507,0.901082,0.651628,0.488909,0.262774,0.180240,0.063264,-0.100753,-0.070019,-0.154915,-0.256532,-0.213946,-0.236846,-0.138214,-0.203584,-0.192099,-0.139423,-0.169258,-0.080334,-0.089908,-0.077413,0.007944,-0.070132,-0.080798,-0.097447,-0.102504,-0.034208,-0.125054,-0.052954,-0.122060,-0.162227,-0.131955,-0.264026,-0.236071,-0.351324,-0.347079,-0.326146,-0.418372,-0.398172,-0.465218,-0.506996,-0.451339,-0.586087,-0.491172,-0.600062,-0.562673,-0.529151,-0.663078,-0.596112,-0.651563,-0.643726,-0.610162,-0.673192,-0.515977,-0.546879,-0.527072,-0.508832,-0.599323,-0.469433,-0.560271,-0.644500,-0.708251,-0.704232,-0.457063,-0.468275,-0.470031,-0.480321,-0.596921,-0.594768,-0.698207,-0.613279,-0.617377,-0.678962,-0.564708,-0.679094,-0.609687,-0.664033,-0.635131,-0.745289,-0.787866,-0.303468,1.163822,4.030090,6.780494,6.175882,1.090716,-2.547482,-2.253179,-0.712881,-0.362976,-0.475430,-0.436697,-0.550392,-0.559720,-0.581817,-0.528730,-0.559768,-0.614142,-0.484986,-0.550685,-0.509988,-0.453667,-0.463690,-0.322979,-0.416676,-0.348384,-0.299382,-0.274369,-0.157017,-0.149898,-0.021218,0.105043,0.187887,0.405834,0.441746,0.700922,0.773564,0.945308,1.110137,1.101719,1.236522,1.274085,1.320173,1.354018,1.225750,1.223440,1.086125,0.860962,0.734813,0.435757,0.251541,0.078580,-0.070140,-0.117314,-0.286277,-0.297597,-0.326768,-0.410174,-0.320384,-0.419592,-0.353993,-0.411328,-0.371274,-0.355791,-0.371324,-0.319174,-0.288285,-0.298202,-0.209137,-0.254385,-0.159638,-0.224092,-0.201293,-0.150280,-0.237731,-0.175591,-0.229640,-0.266222,-0.171207,-0.415407,-0.239103,-0.468439,0.000000,0.000000,0.000000,0.000000,0.000000,0.000000,0.000000,0.000000,0.000000,0.000000,0.000000,0.000000,0.000000,1.000000
0.138339,0.515586,0.504266,0.805790,0.820876,1.052694,1.149301,1.175904,1.293277,1.331828,1.374829,1.397920,1.259000,1.280425,1.096419,0.908475,0.755409,0.469411,0.291207,0.124613,-0.017621,-0.058228,-0.240093,-0.216487,-0.281947,-0.326924,-0.263952,-0.346466,-0.290107,-0.341576,-0.303204,-0.285090,-0.308305,-0.240282,-0.230849,-0.218893,-0.150532,-0.179170,-0.099052,-0.154893,-0.138397,-0.078086,-0.184074,-0.093699,-0.185230,-0.175655,-0.133312,-0.320043,-0.211425,-0.332125,-0.321990,-0.282808,-0.441591,-0.341024,-0.465424,-0.465733,-0.452331,-0.562021,-0.510609,-0.539624,-0.599730,-0.523262,-0.656874,-0.533985,-0.625305,-0.642202,-0.587500,-0.677026,-0.632698,-0.651799,-0.645085,-0.586209,-0.620816,-0.542034,-0.594948,-0.547866,-0.499338,-0.589193,-0.492784,-0.590448,-0.716986,-0.776395,-0.694052,-0.453578,-0.524986,-0.548706,-0.556276,-0.686324,-0.593562,-0.716639,-0.648990,-0.633132,-0.729340,-0.604981,-0.656864,-0.662978,-0.613723,-0.708607,-0.731080,-0.617947,0.107775,2.225120,5.073285,7.064708,5.189233,-0.032165,-2.639492,-2.091730,-0.775988,-0.333361,-0.474773,-0.423118,-0.584192,-0.526342,-0.511352,-0.523941,-0.498684,-0.522751,-0.443725,-0.458292,-0.456306,-0.351275,-0.419097,-0.302569,-0.346827,-0.318904,-0.220884,-0.231787,-0.136591,-0.121801,-0.012740,0.104670,0.138283,0.380862,0.406848,0.622200,0.757577,0.770837,1.015458,1.092995,1.172936,1.306181,1.283261,1.412175,1.373410,1.292668,1.257242,1.067976,0.945760,0.739695,0.511203,0.335364,0.157781,0.080757,-0.094842,-0.233898,-0.196417,-0.308636,-0.278403,-0.397880,-0.349585,-0.322856,-0.402070,-0.291809,-0.324137,-0.277403,-0.222284,-0.284134,-0.141394,-0.166660,-0.205919,-0.177977,-0.211088,-0.125516,-0.231582,-0.142377,-0.098633,-0.185409,-0.059423,-0.205379,-0.151617,-0.282698,0.000000,0.000000,0.000000,0.000000,0.000000,1.000000
0.069827,0.406942,0.418800,0.663839,0.799858,0.820243,1.088337,1.163781,1.258749,1.395483,1.373494,1.514609,1.462955,1.381063,1.336579,1.129494,0.998834,0.768484,0.524669,0.333130,0.143803,0.062799,-0.137590,-0.271955,-0.237590,-0.357323,-0.323329,-0.458950,-0.389354,-0.378901,-0.452250,-0.332438,-0.375987,-0.310959,-0.267437,-0.323335,-0.165472,-0.209659,-0.239803,-0.216302,-0.245695,-0.154578,-0.281996,-0.152653,-0.146994,-0.203927,-0.098007,-0.236616,-0.204026,-0.294845,-0.343708,-0.304011,-0.379107,-0.400503,-0.390897,-0.504463,-0.456787,-0.525133,-0.501094,-0.541117,-0.634227,-0.529382,-0.649990,-0.583373,-0.614706,-0.735235,-0.661673,-0.714532,-0.685031,-0.639918,-0.679905,-0.598035,-0.653287,-0.571286,-0.532710,-0.611701,-0.550738,-0.663097,-0.591062,-0.545165,-0.635620,-0.727674,-0.929348,-0.829274,-0.570006,-0.546504,-0.500927,-0.635700,-0.615162,-0.624596,-0.770060,-0.665105,-0.657861,-0.699615,-0.756996,-0.797650,-0.633333,-0.674301,-0.630471,-0.781549,-0.717610,-0.096477,1.558888,4.676288,6.885724,5.430948,0.129099,-2.758713,-1.861332,-0.611171,-0.386050,-0.425745,-0.511309,-0.498669,-0.564261,-0.627880,-0.494055,-0.565302,-0.494063,-0.550890,-0.501184,-0.407578,-0.528435,-0.420361,-0.413467,-0.478780,-0.317116,-0.332234,-0.275062,-0.250587,-0.181737,-0.018465,-0.035047,0.115755,0.218041,0.312784,0.598569,0.641498,0.844291,0.976890,1.034904,1.228383,1.272038,1.388048,1.416172,1.401477,1.487678,1.259386,1.354791,1.138223,0.886559,0.791539,0.480640,0.414984,0.231900,0.041261,0.009651,-0.168631,-0.157306,-0.194677,-0.316948,-0.275128,-0.281434,-0.143141,-0.255141,-0.299528,-0.181066,-0.260331,-0.148824,-0.154957,-0.129989,-0.025429,-0.048465,-0.015197,-0.066666,-0.092840,0.017753,-0.076528,-0.078995,-0.144169,-0.188458,-0.135966,-0.254944,0.000000,0.000000,0.000000,0.000000,1.000000
-0.005261,0.147015,0.247597,0.544332,0.571913,0.805277,0.913766,0.993220,1.184552,1.224821,1.352343,1.361436,1.366294,1.431592,1.200264,1.312103,1.048809,0.820732,0.702620,0.389212,0.331993,0.125585,-0.052826,-0.091693,-0.275481,-0.249492,-0.305354,-0.419792,-0.376341,-0.378539,-0.235116,-0.370686,-0.390719,-0.282979,-0.359778,-0.240759,-0.255723,-0.220171,-0.116725,-0.144276,-0.105559,-0.168843,-0.181458,-0.075140,-0.175865,-0.173012,-0.248745,-0.281470,-0.241326,-0.341911,-0.223354,-0.311776,-0.399715,-0.420551,-0.505289,-0.475257,-0.562633,-0.554607,-0.509429,-0.605988,-0.564507,-0.671337,-0.620895,-0.596564,-0.663997,-0.585901,-0.670890,-0.708259,-0.597697,-0.737580,-0.650459,-0.651045,-0.598133,-0.529895,-0.604287,-0.509408,-0.659084,-0.650280,-0.551496,-0.660549,-0.664486,-0.880028,-0.892606,-0.691842,-0.569075,-0.481712,-0.539190,-0.611024,-0.569653,-0.723120,-0.653233,-0.701995,-0.679587,-0.639839,-0.694412,-0.609202,-0.640388,-0.624407,-0.520905,-0.772869,-0.591393,-0.264594,0.816236,3.153946,5.563678,6.954864,4.190037,-0.612160,-2.423837,-1.656305,-0.479455,-0.296447,-0.440658,-0.367087,-0.497805,-0.482399,-0.537284,-0.537234,-0.467580,-0.542260,-0.454113,-0.495799,-0.476684,-0.420155,-0.465943,-0.356909,-0.404966,-0.343967,-0.285415,-0.315665,-0.168343,-0.143831,-0.091372,0.026735,-0.002898,0.251581,0.273234,0.393924,0.556062,0.640159,0.906513,0.900461,1.084297,1.193235,1.228095,1.340214,1.290273,1.385281,1.395858,1.279787,1.269416,1.093381,0.985335,0.868243,0.519013,0.408750,0.205035,0.033301,-0.048285,-0.213441,-0.185378,-0.317635,-0.314998,-0.357480,-0.399389,-0.320848,-0.421515,-0.472993,-0.358037,-0.460658,-0.291570,-0.314171,-0.284139,-0.236124,-0.333351,-0.146379,-0.158807,-0.161583,-0.121351,-0.170267,-0.066729,-0.158188,-0.178920,-0.192147,0.000000,0.000000,0.000000,1.000000
-0.057860,0.307794,0.284624,0.429900,0.556730,0.657769,0.890945,0.886153,1.067034,1.154833,1.195176,1.293108,1.242922,1.345600,1.330567,1.234207,1.216508,1.043885,0.957520,0.822752,0.499727,0.417334,0.200488,0.073190,-0.028054,-0.154934,-0.139517,-0.262763,-0.248164,-0.301925,-0.322748,-0.252925,-0.376203,-0.375269,-0.302069,-0.378713,-0.209318,-0.265185,-0.197939,-0.198739,-0.252640,-0.070889,-0.124120,-0.086841,-0.088467,-0.096310,-0.025709,-0.114938,-0.130749,-0.117744,-0.209754,-0.160010,-0.248088,-0.235004,-0.267501,-0.365903,-0.347710,-0.448351,-0.447000,-0.435426,-0.462998,-0.434568,-0.523019,-0.480752,-0.593788,-0.590169,-0.579403,-0.653358,-0.585561,-0.649435,-0.660877,-0.585480,-0.693065,-0.595337,-0.613666,-0.594521,-0.490846,-0.636151,-0.538612,-0.561674,-0.535034,-0.527048,-0.793959,-0.794104,-0.760798,-0.523724,-0.426731,-0.587363,-0.545723,-0.617765,-0.690236,-0.665716,-0.705693,-0.620496,-0.679670,-0.642938,-0.623322,-0.696457,-0.588657,-0.756838,-0.776710,-0.364554,0.885183,3.906307,6.981449,6.494183,0.941707,-2.837698,-2.042594,-0.738825,-0.311118,-0.500464,-0.516235,-0.517874,-0.597568,-0.594914,-0.533776,-0.613214,-0.498626,-0.583989,-0.511728,-0.460464,-0.510683,-0.392539,-0.403298,-0.358716,-0.283574,-0.337526,-0.142153,-0.139907,-0.041057,0.047708,0.088240,0.301159,0.370100,0.548278,0.711936,0.814005,1.036550,1.082836,1.245959,1.346836,1.287043,1.380909,1.312548,1.322522,1.225600,0.978531,0.913027,0.578085,0.415024,0.231097,0.028321,-0.053711,-0.212749,-0.213533,-0.271410,-0.368432,-0.301080,-0.428915,-0.363407,-0.322208,-0.365460,-0.238863,-0.351163,-0.230707,-0.225030,-0.252005,-0.121825,-0.201771,-0.131355,-0.157784,-0.194273,-0.099623,-0.198769,-0.130715,-0.203966,-0.184796,-0.191435,-0.317709,-0.252003,-0.310905,-0.427472,0.000000,0.000000,0.000000,0.000000,1.000000
0.154780,0.531586,0.636653,0.825699,0.916677,1.151710,1.161333,1.376432,1.401521,1.384266,1.456214,1.381457,1.405275,1.253064,1.039999,0.953167,0.598331,0.480417,0.255652,0.095176,-0.007079,-0.147467,-0.135726,-0.219194,-0.286998,-0.229701,-0.370513,-0.257950,-0.268818,-0.265123,-0.172213,-0.276493,-0.133485,-0.166713,-0.156181,-0.045816,-0.132587,-0.039518,-0.103453,-0.098074,-0.034383,-0.121459,-0.053432,-0.137635,-0.099356,-0.131145,-0.247857,-0.161617,-0.270263,-0.314179,-0.302400,-0.402583,-0.364449,-0.454498,-0.471854,-0.455368,-0.552414,-0.502879,-0.616125,-0.631912,-0.522430,-0.638459,-0.561434,-0.639330,-0.635137,-0.559154,-0.643125,-0.526130,-0.585628,-0.560424,-0.516417,-0.574788,-0.477512,-0.563948,-0.563771,-0.616182,-0.825444,-0.670737,-0.525914,-0.542090,-0.487841,-0.634639,-0.608466,-0.718329,-0.663195,-0.684068,-0.706049,-0.599230,-0.623665,-0.638996,-0.565801,-0.792202,-0.691064,-0.242202,1.762504,5.276647,7.379007,3.830455,-1.991566,-2.753379,-1.198449,-0.372143,-0.471735,-0.490584,-0.538658,-0.548018,-0.623157,-0.553912,-0.604062,-0.503978,-0.455373,-0.552528,-0.464626,-0.533012,-0.452314,-0.380587,-0.407257,-0.271741,-0.298241,-0.267872,-0.229526,-0.157879,-0.013555,0.015408,0.206704,0.387025,0.485280,0.740678,0.745356,0.959885,1.068613,1.170846,1.379453,1.375454,1.391200,1.394763,1.271093,1.203149,0.954712,0.863014,0.621711,0.308486,0.282837,0.062770,-0.063579,-0.157819,-0.282898,-0.255951,-0.367434,-0.284334,-0.332338,-0.350595,-0.310768,-0.399516,-0.284951,-0.294301,-0.315389,-0.202396,-0.227388,-0.150103,-0.140052,-0.169872,-0.135389,-0.212103,-0.147879,-0.131016,-0.200999,-0.143930,-0.365233,-0.318999,-0.360164,-0.316553,-0.344671,-0.432437,-0.520542,0.000000,0.000000,0.000000,0.000000,0.000000,0.000000,0.000000,0.000000,0.000000,0.000000,0.000000,0.000000,1.000000
0.188186,0.669117,0.786526,0.869997,1.055364,1.184252,1.281993,1.512623,1.459179,1.520072,1.470208,1.374354,1.262857,1.022544,0.927371,0.640413,0.351760,0.336569,0.069781,-0.008588,-0.151562,-0.227494,-0.234523,-0.322384,-0.235654,-0.306931,-0.297551,-0.281109,-0.360599,-0.215781,-0.279189,-0.242240,-0.161185,-0.171731,-0.092153,-0.098425,-0.121016,-0.088143,-0.182116,-0.063324,-0.122764,-0.122220,-0.144488,-0.332865,-0.277852,-0.317274,-0.275421,-0.309567,-0.449614,-0.404016,-0.508268,-0.475144,-0.481644,-0.595836,-0.539150,-0.598018,-0.632399,-0.587761,-0.718596,-0.621802,-0.672492,-0.626533,-0.670594,-0.803323,-0.686893,-0.761611,-0.736180,-0.586297,-0.633519,-0.537874,-0.638850,-0.569504,-0.524661,-0.607217,-0.685159,-0.879075,-0.777313,-0.546737,-0.585986,-0.489263,-0.611028,-0.642050,-0.730435,-0.768724,-0.614056,-0.692510,-0.673910,-0.621012,-0.688461,-0.559125,-0.678679,-0.794356,-0.596201,-0.071222,1.695137,4.449889,6.616157,5.541673,0.482019,-2.444552,-2.068112,-0.723242,-0.355692,-0.504719,-0.348124,-0.638757,-0.604449,-0.529578,-0.573467,-0.479589,-0.546179,-0.509421,-0.491792,-0.529011,-0.441257,-0.472566,-0.325114,-0.359069,-0.412552,-0.290175,-0.312764,-0.193054,-0.201931,-0.148113,0.106609,0.165615,0.369864,0.481306,0.674478,0.838853,0.780414,1.004514,1.130792,1.234321,1.373765,1.351512,1.472630,1.443512,1.352083,1.192030,1.006357,0.966693,0.694874,0.453507,0.282257,0.051154,0.016205,-0.089051,-0.149861,-0.233494,-0.364870,-0.262188,-0.343864,-0.300171,-0.264144,-0.372897,-0.319159,-0.345052,-0.310148,-0.256667,-0.262833,-0.124277,-0.146361,-0.107032,-0.053219,-0.122548,-0.077694,-0.105081,-0.143201,-0.107663,-0.270341,-0.146490,-0.370565,-0.286119,-0.355865,0.000000,0.000000,0.000000,0.000000,0.000000,0.000000,0.000000,0.000000,0.000000,0.000000,0.000000,0.000000,1.000000
0.059660,0.436878,0.483349,0.740001,0.813627,0.802028,1.045194,1.133116,1.266242,1.366969,1.356201,1.482246,1.413737,1.332742,1.141332,0.994618,0.933776,0.639608,0.425154,0.242041,0.027584,0.009577,-0.114949,-0.151278,-0.266137,-0.360028,-0.267698,-0.354156,-0.293988,-0.276297,-0.382515,-0.315389,-0.358426,-0.300634,-0.269668,-0.254253,-0.130325,-0.147431,-0.112731,-0.052473,-0.137356,-0.069974,-0.125072,-0.132774,-0.130347,-0.258489,-0.170972,-0.352504,-0.325319,-0.296322,-0.449907,-0.349603,-0.488240,-0.505738,-0.471542,-0.628840,-0.542387,-0.621385,-0.616784,-0.627042,-0.678009,-0.617527,-0.672068,-0.666937,-0.631939,-0.700216,-0.581621,-0.633349,-0.597876,-0.587154,-0.662478,-0.529260,-0.682415,-0.787932,-0.811715,-0.884141,-0.602756,-0.600041,-0.554428,-0.578225,-0.649913,-0.683280,-0.744618,-0.722300,-0.675670,-0.704976,-0.625522,-0.699323,-0.604586,-0.590636,-0.771093,-0.771493,-0.498868,0.201278,2.373693,5.190036,6.881061,4.161860,-0.929756,-2.750148,-1.783787,-0.484419,-0.438549,-0.462694,-0.415322,-0.617380,-0.498847,-0.614992,-0.549054,-0.527484,-0.611866,-0.493394,-0.560528,-0.492913,-0.422919,-0.474724,-0.365422,-0.435336,-0.385188,-0.291011,-0.307562,-0.156615,-0.174497,-0.094910,0.064308,0.117589,0.336600,0.397139,0.561185,0.770355,0.872244,1.083929,1.119137,1.253754,1.310574,1.309757,1.478214,1.385716,1.412202,1.315718,1.110052,0.998870,0.716486,0.517433,0.390967,0.137404,0.028289,-0.154252,-0.139651,-0.214849,-0.350138,-0.286008,-0.345856,-0.360976,-0.374375,-0.429610,-0.264057,-0.306326,-0.284980,-0.243222,-0.287244,-0.138944,-0.229523,-0.182304,-0.157146,-0.149533,-0.123923,-0.217105,-0.124926,-0.118970,-0.245532,-0.151162,-0.317302,-0.227979,-0.364982,0.000000,0.000000,0.000000,0.000000,0.000000,0.000000,0.000000,0.000000,0.000000,0.000000,0.000000,0.000000,1.000000
-0.005411,0.346224,0.355414,0.549502,0.725997,0.847662,1.034463,1.082726,1.203052,1.264258,1.258628,1.430123,1.323234,1.367076,1.247156,1.065050,0.941049,0.670329,0.479607,0.356788,0.104016,0.010867,-0.176621,-0.135881,-0.244678,-0.343135,-0.294450,-0.348654,-0.364520,-0.378618,-0.425509,-0.249119,-0.329188,-0.263366,-0.269554,-0.264720,-0.154508,-0.233867,-0.184501,-0.159668,-0.157794,-0.131388,-0.237844,-0.096182,-0.172979,-0.218998,-0.192815,-0.302391,-0.260439,-0.330853,-0.405050,-0.364528,-0.433852,-0.400522,-0.463423,-0.541765,-0.491320,-0.576371,-0.520825,-0.584447,-0.591696,-0.513545,-0.679386,-0.608767,-0.632715,-0.667415,-0.611751,-0.710418,-0.623331,-0.633109,-0.605488,-0.498662,-0.569156,-0.503073,-0.527024,-0.612184,-0.506249,-0.685488,-0.680411,-0.774834,-0.822904,-0.554798,-0.545174,-0.488900,-0.571615,-0.674865,-0.641919,-0.730341,-0.646794,-0.696753,-0.669589,-0.635571,-0.732762,-0.633636,-0.600093,-0.551923,-0.599036,-0.800100,-0.427896,0.083613,1.948805,4.749371,6.842569,5.587873,0.299901,-2.614293,-2.060567,-0.985815,-0.248126,-0.476686,-0.466196,-0.437337,-0.586094,-0.509075,-0.571866,-0.554892,-0.470136,-0.560655,-0.422551,-0.482934,-0.457897,-0.394374,-0.446719,-0.334299,-0.366634,-0.385897,-0.269155,-0.299051,-0.165426,-0.214100,-0.085436,0.031430,0.037805,0.174827,0.237984,0.435961,0.519874,0.605518,0.784420,0.899622,1.031924,1.152935,1.170136,1.331872,1.327514,1.430281,1.425802,1.331975,1.297361,1.092747,0.972944,0.788984,0.570238,0.432759,0.128847,0.065606,-0.080264,-0.181809,-0.194653,-0.296434,-0.264788,-0.304598,-0.357241,-0.296022,-0.323347,-0.271628,-0.277242,-0.285623,-0.153218,-0.213219,-0.173983,-0.141852,-0.170089,-0.074543,-0.199615,-0.135996,-0.169954,-0.260293,-0.152995,-0.332853,-0.307122,0.000000,0.000000,0.000000,0.000000,0.000000,0.000000,1.000000
-0.092679,0.059801,0.136941,0.247236,0.424942,0.502066,0.599102,0.787710,0.880425,1.039532,1.117316,1.168116,1.311374,1.300959,1.420524,1.366428,1.298831,1.233657,1.022656,0.920184,0.698171,0.517218,0.339880,0.059362,0.024183,-0.157131,-0.206518,-0.252546,-0.329905,-0.293145,-0.357397,-0.379456,-0.324661,-0.357934,-0.286093,-0.329958,-0.283071,-0.184823,-0.254865,-0.182337,-0.190785,-0.177735,-0.118345,-0.247889,-0.139185,-0.252146,-0.257841,-0.208804,-0.398560,-0.278174,-0.392575,-0.403782,-0.408706,-0.494855,-0.409619,-0.519551,-0.522604,-0.456856,-0.553614,-0.476974,-0.603846,-0.607262,-0.561562,-0.630128,-0.607335,-0.698669,-0.615809,-0.600351,-0.693396,-0.625149,-0.696887,-0.621986,-0.611598,-0.634420,-0.502819,-0.620340,-0.598829,-0.549911,-0.608748,-0.611872,-0.820049,-0.855308,-0.645085,-0.532617,-0.488216,-0.596698,-0.594991,-0.633730,-0.694205,-0.669547,-0.738227,-0.654293,-0.658194,-0.713864,-0.595667,-0.675208,-0.591569,-0.681272,-0.821134,-0.520937,-0.082068,1.959866,4.892105,6.969888,5.253236,-0.316916,-2.842196,-1.791055,-0.646397,-0.255682,-0.506777,-0.450998,-0.518441,-0.605101,-0.558066,-0.585339,-0.504672,-0.476200,-0.531730,-0.452170,-0.527316,-0.401304,-0.420537,-0.443571,-0.340485,-0.412422,-0.328419,-0.292753,-0.241989,-0.232275,-0.249605,-0.046190,-0.055539,0.053656,0.250075,0.289921,0.509168,0.558827,0.732121,1.015969,1.046382,1.225350,1.266880,1.368000,1.512367,1.444768,1.504338,1.348659,1.265345,1.142982,0.833034,0.694311,0.456126,0.265103,0.075876,-0.106436,-0.044871,-0.185696,-0.227422,-0.217605,-0.305515,-0.153350,-0.314077,-0.270339,-0.241941,-0.310646,-0.206046,-0.243940,-0.150839,-0.079169,-0.160009,-0.034818,-0.147226,-0.126307,-0.058049,-0.142579,-0.056240,-0.095222,-0.120176,-0.228903,-0.224654,-0.179828,0.000000,0.000000,0.000000,0.000000,0.000000,1.000000
-0.181619,0.065628,0.184179,0.277607,0.487197,0.520005,0.768308,1.006509,1.038599,1.239788,1.242141,1.404438,1.491357,1.442098,1.486242,1.300532,1.244287,1.066063,0.760644,0.624915,0.358977,0.183715,-0.035322,-0.184002,-0.124191,-0.291751,-0.300169,-0.318821,-0.381451,-0.233750,-0.420079,-0.338218,-0.341758,-0.389717,-0.289285,-0.328906,-0.221302,-0.161120,-0.240782,-0.105474,-0.239446,-0.195250,-0.142494,-0.218848,-0.135780,-0.171224,-0.206050,-0.308839,-0.317662,-0.244320,-0.375551,-0.352146,-0.354069,-0.475945,-0.450305,-0.544229,-0.500889,-0.568797,-0.641333,-0.527000,-0.755737,-0.634012,-0.672490,-0.732668,-0.666514,-0.766015,-0.732533,-0.739712,-0.742842,-0.671036,-0.770133,-0.639681,-0.592692,-0.537228,-0.644189,-0.773223,-0.662394,-0.730479,-0.970051,-0.883178,-0.864920,-0.688994,-0.643550,-0.739492,-0.720810,-0.854513,-0.777245,-0.739288,-0.771210,-0.722837,-0.753462,-0.741341,-0.689445,-0.729991,-0.575568,-0.769731,-0.768566,-0.420504,0.376384,2.561864,4.997548,6.668237,4.593313,-0.149134,-2.502061,-1.838903,-0.513832,-0.384463,-0.555235,-0.399574,-0.542116,-0.532868,-0.534377,-0.631683,-0.546213,-0.536358,-0.505312,-0.492749,-0.484031,-0.468127,-0.559858,-0.406008,-0.386582,-0.379177,-0.319926,-0.319780,-0.233639,-0.092063,-0.101236,-0.001790,0.011645,0.320001,0.451927,0.487919,0.714844,0.801187,1.021967,1.159738,1.156485,1.427357,1.390938,1.558793,1.478846,1.429676,1.500662,1.272881,1.132738,0.897356,0.644477,0.588240,0.253295,0.141104,0.062527,-0.026153,-0.044919,-0.195364,-0.186894,-0.170967,-0.279619,-0.204615,-0.337566,-0.206745,-0.231741,-0.267706,-0.146317,-0.205237,-0.105076,-0.146290,-0.124200,-0.014451,-0.111911,-0.007000,-0.057050,-0.191007,-0.059185,-0.098240,0.009146,-0.105779,-0.133515,-0.083512,0.000000,0.000000,0.000000,0.000000,0.000000,0.000000,0.000000,1.000000
-0.118178,0.314475,0.411885,0.464823,0.681120,0.771777,0.990459,1.123903,1.124583,1.392288,1.353725,1.524010,1.434752,1.396107,1.458840,1.228406,1.093611,0.849945,0.610766,0.548093,0.211588,0.113900,0.028334,-0.051932,-0.076229,-0.226679,-0.204867,-0.203965,-0.301127,-0.231377,-0.365042,-0.217758,-0.270124,-0.278163,-0.174606,-0.226084,-0.125805,-0.177697,-0.136886,-0.042287,-0.141342,-0.018027,-0.108193,-0.203584,-0.085224,-0.117248,-0.015603,-0.146552,-0.149928,-0.110816,-0.304756,-0.214806,-0.269049,-0.355425,-0.305067,-0.427418,-0.388130,-0.412961,-0.496619,-0.433560,-0.560219,-0.514530,-0.567502,-0.588966,-0.555672,-0.642683,-0.601571,-0.653714,-0.732638,-0.578563,-0.593902,-0.465148,-0.528514,-0.534707,-0.467863,-0.566283,-0.546448,-0.704253,-0.839884,-0.877308,-0.843411,-0.566975,-0.638047,-0.660073,-0.587361,-0.795645,-0.745770,-0.826982,-0.763082,-0.660763,-0.724719,-0.636273,-0.655250,-0.666703,-0.558834,-0.741336,-0.743392,-0.510651,0.166258,2.154620,4.665440,6.517942,5.361718,0.643438,-2.606209,-2.480076,-0.863138,-0.374426,-0.573928,-0.452485,-0.512730,-0.481975,-0.628630,-0.596322,-0.510275,-0.550134,-0.485168,-0.581212,-0.587936,-0.467254,-0.550921,-0.434779,-0.470236,-0.387802,-0.363717,-0.380239,-0.243619,-0.258978,-0.216543,-0.020081,0.007457,0.235363,0.274456,0.481818,0.621131,0.742437,0.911352,1.044888,1.159023,1.318185,1.286017,1.463591,1.452380,1.460969,1.401161,1.213811,1.153462,0.850236,0.687154,0.463252,0.155120,0.059677,-0.146803,-0.240839,-0.288927,-0.389681,-0.306266,-0.432473,-0.427554,-0.376601,-0.436340,-0.339940,-0.380255,-0.315047,-0.314056,-0.329840,-0.238390,-0.316980,-0.225196,-0.204635,-0.289670,-0.166419,-0.244463,-0.192256,-0.215515,-0.285007,-0.236701,-0.346488,-0.339539,-0.396306,0.000000,0.000000,0.000000,0.000000,0.000000,0.000000,0.000000,1.000000
-0.054604,0.296356,0.301765,0.529919,0.641517,0.771224,0.934418,1.052345,1.178440,1.306879,1.285710,1.465153,1.423644,1.454353,1.353790,1.198989,1.117559,0.814069,0.682402,0.426136,0.162406,0.069814,-0.138099,-0.197361,-0.267613,-0.334674,-0.263189,-0.406842,-0.354555,-0.346402,-0.373389,-0.292178,-0.334053,-0.255089,-0.283359,-0.264996,-0.200719,-0.276038,-0.155325,-0.191624,-0.226464,-0.124995,-0.212718,-0.131917,-0.204881,-0.223067,-0.214549,-0.303358,-0.305750,-0.331543,-0.392234,-0.377798,-0.471761,-0.443351,-0.487354,-0.546384,-0.459193,-0.578620,-0.505841,-0.634238,-0.615747,-0.533673,-0.664799,-0.616058,-0.658233,-0.642013,-0.564120,-0.654906,-0.531585,-0.630226,-0.630499,-0.604852,-0.724167,-0.767300,-0.870264,-0.678128,-0.497776,-0.595572,-0.542661,-0.729435,-0.743608,-0.698801,-0.765909,-0.684934,-0.709539,-0.680770,-0.641076,-0.730027,-0.581435,-0.849489,-0.825324,-0.462799,0.901137,3.826031,6.514460,5.808430,0.301158,-2.932217,-2.092398,-0.919115,-0.378943,-0.478012,-0.559370,-0.505873,-0.651388,-0.593305,-0.574151,-0.577429,-0.559379,-0.551689,-0.497621,-0.466293,-0.463949,-0.349745,-0.398285,-0.348811,-0.304628,-0.302938,-0.139403,-0.156523,-0.036273,0.054914,0.122704,0.300276,0.372976,0.618155,0.771861,0.836536,1.091524,1.167962,1.284723,1.363067,1.415907,1.548491,1.470924,1.487116,1.378174,1.196504,1.027845,0.726523,0.515890,0.271902,0.124535,0.010844,-0.155696,-0.192206,-0.265113,-0.363245,-0.269353,-0.321442,-0.281106,-0.255266,-0.311923,-0.182122,-0.257994,-0.170323,-0.186720,-0.180563,-0.099712,-0.134131,-0.050461,-0.101523,-0.137767,-0.055456,-0.201586,-0.160100,-0.248221,-0.344175,-0.285127,-0.355379,-0.375166,-0.373287,-0.532696,0.000000,0.000000,0.000000,0.000000,0.000000,0.000000,0.000000,0.000000,0.000000,0.000000,0.000000,0.000000,0.000000,0.000000,1.000000
0.020684,0.371027,0.544108,0.691409,0.763004,1.026612,1.051628,1.208459,1.230822,1.337560,1.409296,1.342836,1.355452,1.211505,1.048362,0.855412,0.564443,0.373278,0.130125,0.025771,-0.115062,-0.248423,-0.273652,-0.369298,-0.423044,-0.331210,-0.410339,-0.318956,-0.362048,-0.346747,-0.265737,-0.326886,-0.228098,-0.278839,-0.227053,-0.182763,-0.201553,-0.115948,-0.214027,-0.178685,-0.163939,-0.284425,-0.231473,-0.365463,-0.401605,-0.358142,-0.451984,-0.419280,-0.499946,-0.551268,-0.585428,-0.642961,-0.576803,-0.742463,-0.612071,-0.580944,-0.644393,-0.550448,-0.664095,-0.596094,-0.573854,-0.606781,-0.527003,-0.638853,-0.546944,-0.605739,-0.712783,-0.748624,-0.899264,-0.604035,-0.503404,-0.591783,-0.504323,-0.679628,-0.600353,-0.705051,-0.767916,-0.662127,-0.704340,-0.593172,-0.595641,-0.664266,-0.588582,-0.820782,-0.766984,-0.495512,0.617895,3.553019,6.398375,6.250087,1.067495,-2.697508,-2.158252,-0.787646,-0.341265,-0.510339,-0.461440,-0.505549,-0.604916,-0.486373,-0.486737,-0.546096,-0.459762,-0.520575,-0.413199,-0.460819,-0.471041,-0.345184,-0.368404,-0.238566,-0.298560,-0.267939,-0.193347,-0.160213,0.082598,0.156332,0.259703,0.435248,0.498019,0.763342,0.872748,1.024878,1.142168,1.165684,1.294289,1.325314,1.419673,1.471679,1.304511,1.299351,0.975554,0.866677,0.650822,0.367710,0.300289,0.090957,-0.024042,-0.054980,-0.256408,-0.206817,-0.281601,-0.168915,-0.168921,-0.287345,-0.180780,-0.252361,-0.149699,-0.184685,-0.201783,-0.071076,-0.123973,-0.018800,-0.077520,-0.075200,-0.027032,-0.150824,-0.201884,-0.192579,-0.230881,-0.157828,-0.276608,-0.276302,-0.361307,-0.316293,-0.348628,-0.495028,-0.563040,0.000000,0.000000,0.000000,0.000000,0.000000,0.000000,0.000000,0.000000,0.000000,0.000000,0.000000,0.000000,0.000000,0.000000,0.000000,0.000000,0.000000,0.000000,0.000000,0.000000,1.000000
0.264082,0.683844,0.867404,1.018077,1.169318,1.281665,1.304299,1.468564,1.455914,1.626915,1.564246,1.451056,1.369808,1.020394,0.937747,0.632217,0.383947,0.307993,0.047520,-0.005712,-0.106928,-0.277807,-0.221871,-0.304270,-0.140517,-0.222714,-0.288139,-0.192210,-0.271091,-0.130754,-0.229425,-0.171800,-0.081590,-0.112517,-0.008812,-0.090568,-0.060063,-0.029634,-0.188332,-0.198986,-0.223908,-0.223538,-0.183670,-0.298603,-0.310312,-0.385227,-0.342734,-0.377358,-0.591606,-0.524761,-0.542971,-0.561252,-0.534674,-0.605060,-0.564116,-0.680767,-0.569019,-0.539064,-0.663905,-0.603235,-0.656019,-0.605276,-0.588132,-0.635549,-0.528222,-0.620097,-0.514291,-0.551477,-0.676405,-0.607105,-0.715436,-0.823297,-0.852266,-0.779108,-0.466264,-0.591894,-0.665833,-0.651120,-0.743186,-0.678258,-0.793795,-0.760878,-0.713111,-0.723571,-0.597206,-0.693946,-0.654393,-0.660922,-0.916435,-0.613684,-0.076785,2.114342,5.158364,6.728862,4.159152,-1.106845,-2.743081,-1.472550,-0.459047,-0.472409,-0.580602,-0.514409,-0.595082,-0.652721,-0.557863,-0.638972,-0.598953,-0.598575,-0.570811,-0.472909,-0.523509,-0.449372,-0.424223,-0.502480,-0.405128,-0.369856,-0.342247,-0.255834,-0.156001,-0.013293,0.002884,0.229278,0.344627,0.410168,0.745731,0.747875,1.022283,1.089134,1.076733,1.287786,1.279600,1.410698,1.380936,1.373126,1.320096,1.023929,0.898498,0.706963,0.457646,0.341993,0.052233,0.064837,-0.084286,-0.164254,-0.176660,-0.319678,-0.282697,-0.206885,-0.287123,-0.217580,-0.282715,-0.243432,-0.209551,-0.234844,-0.082651,-0.175908,-0.062184,-0.096553,-0.117892,-0.032215,-0.147723,-0.070950,-0.165214,-0.146879,-0.119250,-0.233515,-0.171123,-0.286840,-0.306646,-0.285351,-0.350045,-0.431890,0.000000,0.000000,0.000000,0.000000,0.000000,0.000000,0.000000,0.000000,0.000000,0.000000,0.000000,0.000000,0.000000,0.000000,0.000000,1.000000
0.189769,0.572286,0.791480,0.837937,1.105864,1.135191,1.154096,1.355711,1.335565,1.481082,1.418084,1.438690,1.340090,1.056021,0.943030,0.731670,0.503795,0.376690,0.097022,0.132103,-0.047430,-0.090030,-0.129913,-0.256990,-0.208916,-0.142502,-0.226892,-0.143989,-0.230792,-0.160633,-0.159162,-0.151580,-0.024229,-0.108259,0.006808,-0.038983,-0.048186,0.030984,-0.090278,0.002038,-0.116756,-0.065388,-0.072770,-0.157392,-0.118944,-0.215008,-0.254957,-0.199030,-0.323620,-0.298180,-0.334194,-0.408158,-0.368304,-0.527003,-0.445816,-0.562212,-0.636075,-0.526241,-0.555184,-0.528755,-0.563113,-0.592519,-0.511979,-0.598537,-0.536896,-0.595717,-0.545140,-0.508336,-0.534711,-0.493221,-0.575360,-0.637961,-0.643975,-0.881402,-0.764274,-0.616911,-0.529973,-0.506665,-0.663682,-0.631719,-0.645675,-0.763824,-0.688872,-0.788710,-0.668156,-0.686556,-0.695342,-0.589369,-0.674892,-0.668805,-0.857426,-0.584766,0.228211,2.432446,5.445281,6.863858,3.696935,-1.689506,-2.926668,-1.410111,-0.401577,-0.496206,-0.433165,-0.607222,-0.553692,-0.668870,-0.621757,-0.562126,-0.677168,-0.548312,-0.580536,-0.555438,-0.472624,-0.571994,-0.437354,-0.499253,-0.481230,-0.395722,-0.401711,-0.225941,-0.246512,-0.199246,-0.033417,-0.063947,0.110133,0.163125,0.333572,0.576445,0.679220,0.884872,0.967876,1.034427,1.229494,1.173677,1.367858,1.338433,1.379675,1.381605,1.207211,1.189705,0.957425,0.769026,0.618868,0.322915,0.260623,0.002066,-0.111802,-0.166827,-0.315726,-0.276811,-0.406342,-0.415687,-0.342342,-0.471576,-0.414735,-0.468053,-0.454886,-0.377203,-0.401661,-0.317679,-0.333234,-0.277080,-0.183239,-0.274634,-0.203023,-0.272001,-0.239247,-0.219074,-0.321515,-0.218237,-0.280702,-0.277470,-0.208684,-0.422976,0.000000,0.000000,0.000000,0.000000,0.000000,0.000000,0.000000,0.000000,0.000000,0.000000,0.000000,0.000000,0.000000,1.000000
0.091733,0.252362,0.375151,0.629675,0.698995,0.917952,0.964185,1.057317,1.212921,1.178069,1.350988,1.323155,1.362491,1.358731,1.191108,1.183346,0.944861,0.790056,0.627541,0.367534,0.301907,0.059407,-0.038756,-0.093699,-0.232261,-0.187519,-0.325188,-0.308497,-0.261514,-0.371307,-0.321128,-0.371298,-0.354584,-0.281454,-0.309905,-0.220622,-0.251198,-0.175941,-0.111960,-0.183585,-0.124892,-0.186030,-0.154033,-0.137723,-0.238732,-0.122368,-0.213864,-0.166725,-0.157966,-0.290496,-0.212448,-0.322602,-0.302656,-0.303796,-0.422313,-0.371401,-0.453230,-0.461795,-0.456270,-0.546121,-0.492907,-0.588088,-0.614964,-0.571570,-0.646397,-0.541938,-0.657384,-0.613016,-0.516416,-0.612056,-0.506785,-0.602932,-0.504007,-0.539976,-0.668668,-0.714919,-0.874468,-0.706402,-0.483587,-0.530710,-0.506188,-0.628437,-0.594650,-0.680587,-0.780725,-0.700994,-0.751087,-0.652779,-0.684925,-0.726244,-0.600125,-0.664386,-0.862102,-0.743076,-0.352933,1.401913,4.542135,6.986940,5.356364,-0.150716,-2.954237,-2.411312,-1.018854,-0.303059,-0.548639,-0.525670,-0.604562,-0.627316,-0.618380,-0.669352,-0.564412,-0.603006,-0.546107,-0.534006,-0.527502,-0.453546,-0.488821,-0.461759,-0.379348,-0.412836,-0.307036,-0.318553,-0.202415,-0.160788,-0.119688,0.034438,0.028666,0.203053,0.331499,0.435079,0.644354,0.733023,0.934740,1.042935,1.064780,1.263558,1.275420,1.312876,1.327390,1.265671,1.267796,1.041546,0.973177,0.803239,0.529711,0.406866,0.114974,0.046760,-0.051034,-0.218496,-0.166747,-0.348090,-0.306430,-0.334730,-0.385373,-0.284263,-0.372750,-0.300042,-0.291920,-0.289503,-0.120091,-0.183097,-0.121681,-0.203657,-0.145047,-0.065898,-0.108478,-0.029718,-0.023350,-0.079555,0.026008,-0.132090,-0.076780,-0.140090,-0.207842,-0.173420,0.000000,0.000000,0.000000,0.000000,0.000000,0.000000,0.000000,0.000000,0.000000,0.000000,0.000000,1.000000
-0.129248,0.087227,0.202936,0.327343,0.536512,0.632227,0.846349,0.945744,0.976395,1.188128,1.181541,1.237430,1.231683,1.183366,1.166099,0.932740,0.866745,0.674099,0.394620,0.268329,-0.046515,-0.088461,-0.221499,-0.365770,-0.329813,-0.512392,-0.461529,-0.500105,-0.544507,-0.437000,-0.543654,-0.442189,-0.463930,-0.426360,-0.275993,-0.329194,-0.277921,-0.355398,-0.292631,-0.207055,-0.266631,-0.157460,-0.188717,-0.207882,-0.134752,-0.274220,-0.236833,-0.279637,-0.391103,-0.268793,-0.424501,-0.407623,-0.416223,-0.466064,-0.403922,-0.573411,-0.505242,-0.552696,-0.616095,-0.572626,-0.689940,-0.612751,-0.651348,-0.614416,-0.578014,-0.729191,-0.596243,-0.582536,-0.555067,-0.485953,-0.582740,-0.504318,-0.625259,-0.664608,-0.612601,-0.873869,-0.814016,-0.684732,-0.479780,-0.407646,-0.601774,-0.593109,-0.686038,-0.733539,-0.648790,-0.694720,-0.618020,-0.683737,-0.636492,-0.618415,-0.663975,-0.626656,-0.808650,-0.570299,0.198115,2.479578,5.576918,6.978523,3.884400,-1.482279,-2.968160,-1.480787,-0.427284,-0.417891,-0.420322,-0.533994,-0.478928,-0.545297,-0.619532,-0.510751,-0.616017,-0.446702,-0.523686,-0.517493,-0.430221,-0.489709,-0.302016,-0.345068,-0.388007,-0.328996,-0.343103,-0.182950,-0.158087,-0.105098,0.017506,0.037278,0.254693,0.355413,0.494218,0.711018,0.748362,0.989364,1.062141,1.140360,1.323602,1.416731,1.515741,1.521592,1.508278,1.453060,1.247386,1.179572,1.006520,0.744287,0.578732,0.285246,0.246400,-0.026183,-0.098922,-0.067375,-0.201647,-0.090094,-0.182580,-0.193683,-0.105881,-0.208498,-0.137502,-0.237294,-0.107785,0.001229,-0.141318,0.002010,-0.035200,-0.018527,0.042528,-0.048676,0.047446,-0.020436,-0.041544,-0.020324,-0.090490,-0.016411,-0.136235,-0.137252,-0.134842,-0.241848,0.000000,0.000000,0.000000,0.000000,0.000000,0.000000,0.000000,0.000000,0.000000,0.000000,0.000000,1.000000
0.002711,0.279464,0.374069,0.622885,0.636685,0.915569,0.949985,1.066979,1.232689,1.341288,1.426497,1.435737,1.414555,1.351174,1.130682,1.081987,0.866520,0.623832,0.428770,0.151139,0.107716,-0.188611,-0.217571,-0.216692,-0.334662,-0.215220,-0.338294,-0.308131,-0.250603,-0.342388,-0.271521,-0.382981,-0.202396,-0.151273,-0.268409,-0.114773,-0.179981,-0.129591,-0.099309,-0.176973,-0.072123,-0.172474,-0.156424,-0.169740,-0.211087,-0.154792,-0.285599,-0.260223,-0.286479,-0.378504,-0.307134,-0.460619,-0.404512,-0.462769,-0.586261,-0.480421,-0.591308,-0.546012,-0.571125,-0.632108,-0.574450,-0.665651,-0.598428,-0.630190,-0.642787,-0.505091,-0.581305,-0.524607,-0.570939,-0.597258,-0.484024,-0.659578,-0.753474,-0.868375,-0.866046,-0.596278,-0.529745,-0.491765,-0.557707,-0.680562,-0.663504,-0.751293,-0.714737,-0.654393,-0.751765,-0.590855,-0.672408,-0.622199,-0.671538,-0.702280,-0.751374,-0.680569,0.111616,1.913534,4.677766,6.847596,5.409839,0.609194,-2.375989,-1.837494,-0.394638,-0.300738,-0.425892,-0.448586,-0.594572,-0.491225,-0.562583,-0.505990,-0.562438,-0.579084,-0.487120,-0.604930,-0.477754,-0.528237,-0.555943,-0.442488,-0.452628,-0.336175,-0.406336,-0.357940,-0.212428,-0.231943,-0.103538,-0.073871,0.102693,0.218041,0.310979,0.573514,0.605551,0.771210,0.962121,0.992724,1.134565,1.199877,1.266642,1.425740,1.346658,1.415534,1.250658,1.108982,1.065336,0.733125,0.651882,0.293978,0.182075,0.071418,-0.211082,-0.169827,-0.319403,-0.348672,-0.338330,-0.500748,-0.333217,-0.441746,-0.423504,-0.331957,-0.422872,-0.287670,-0.313502,-0.256013,-0.214779,-0.283199,-0.146948,-0.245095,-0.198401,-0.197238,-0.208411,-0.150281,-0.197341,-0.250565,-0.251195,-0.365969,-0.294623,-0.456368,0.000000,0.000000,0.000000,0.000000,0.000000,0.000000,0.000000,0.000000,0.000000,0.000000,0.000000,0.000000,0.000000,1.000000
0.110861,0.525164,0.545061,0.830230,0.805133,1.024606,1.145722,1.200084,1.322800,1.378189,1.453887,1.588341,1.500281,1.582614,1.376022,1.300639,1.204074,0.921521,0.832876,0.490612,0.424453,0.283655,0.044832,0.094672,-0.069781,-0.058199,-0.087398,-0.207638,-0.055094,-0.174133,-0.129342,-0.064251,-0.142403,-0.006026,-0.050419,0.028551,0.037227,-0.000898,0.110429,0.022100,0.067100,0.068643,0.054064,0.119456,0.052683,0.029312,-0.001861,-0.073212,-0.049744,-0.134507,-0.112728,-0.178849,-0.261156,-0.209310,-0.325458,-0.338282,-0.291769,-0.442205,-0.385563,-0.481962,-0.432907,-0.438530,-0.545133,-0.463967,-0.552467,-0.449709,-0.459605,-0.465348,-0.350738,-0.523944,-0.456430,-0.411616,-0.522012,-0.631563,-0.772623,-0.643371,-0.391977,-0.512731,-0.444781,-0.614712,-0.590080,-0.639869,-0.720156,-0.603953,-0.678425,-0.629464,-0.641355,-0.641334,-0.592142,-0.659518,-0.813197,-0.692609,-0.270726,1.575674,4.589127,6.886410,5.218183,-0.556195,-3.017423,-1.750778,-0.460227,-0.454465,-0.654343,-0.487323,-0.686433,-0.605165,-0.616005,-0.666883,-0.558889,-0.638765,-0.609810,-0.593007,-0.595667,-0.504847,-0.570324,-0.450183,-0.402477,-0.403917,-0.313130,-0.314233,-0.181445,-0.111547,-0.110219,0.124703,0.163271,0.386291,0.499466,0.677918,0.873893,0.880672,1.098042,1.115755,1.113759,1.255741,1.097699,1.091336,0.997979,0.752196,0.605012,0.294291,0.170938,-0.128271,-0.277129,-0.322813,-0.492950,-0.474750,-0.550294,-0.607201,-0.542917,-0.624502,-0.546617,-0.521535,-0.539861,-0.452001,-0.497206,-0.394105,-0.418473,-0.435665,-0.359850,-0.402302,-0.285739,-0.372940,-0.401672,-0.330815,-0.396624,-0.371831,-0.436396,-0.557098,-0.442480,-0.593882,-0.471486,-0.623019,-0.573516,-0.695425,0.000000,0.000000,0.000000,0.000000,0.000000,0.000000,0.000000,0.000000,0.000000,0.000000,0.000000,0.000000,0.000000,1.000000
0.153201,0.747296,0.733511,0.993041,1.125107,1.175623,1.362602,1.395269,1.380271,1.535845,1.353671,1.373932,1.251536,1.027816,0.861885,0.568167,0.434351,0.143487,-0.005734,-0.045288,-0.223002,-0.191110,-0.281723,-0.322128,-0.271066,-0.342066,-0.271196,-0.240113,-0.265726,-0.168917,-0.225303,-0.108915,-0.149457,-0.150015,-0.090130,-0.117177,-0.015751,-0.089641,-0.132041,-0.044626,-0.130228,-0.082820,-0.173410,-0.264129,-0.182379,-0.295667,-0.219335,-0.311380,-0.345615,-0.325705,-0.407155,-0.435636,-0.435714,-0.506776,-0.467410,-0.562830,-0.475459,-0.531360,-0.567649,-0.531565,-0.591135,-0.508794,-0.527896,-0.514372,-0.381197,-0.563202,-0.501091,-0.507354,-0.550414,-0.568947,-0.806948,-0.661512,-0.460042,-0.486952,-0.474438,-0.649031,-0.633520,-0.710966,-0.702611,-0.692824,-0.733695,-0.644820,-0.675839,-0.681721,-0.542282,-0.774833,-0.864883,-0.611627,0.227231,2.744669,5.761023,7.047446,2.593573,-2.625971,-2.497555,-0.951458,-0.365107,-0.575632,-0.502179,-0.540653,-0.681400,-0.626120,-0.583739,-0.635063,-0.531104,-0.625571,-0.523811,-0.542533,-0.508869,-0.415690,-0.463877,-0.379497,-0.312862,-0.347464,-0.138979,-0.157655,0.013330,0.088100,0.205615,0.368892,0.469281,0.698331,0.853250,0.971027,1.178108,1.187503,1.313239,1.318661,1.247563,1.376650,1.153047,1.109920,0.869277,0.621115,0.483371,0.105917,0.012738,-0.098260,-0.164674,-0.183736,-0.374291,-0.340875,-0.317119,-0.382239,-0.263921,-0.377276,-0.277696,-0.261463,-0.276459,-0.197869,-0.174292,-0.087954,-0.124396,-0.178439,-0.050262,-0.237926,-0.081497,-0.171393,-0.125005,-0.085358,-0.205785,-0.178018,-0.195965,-0.251440,-0.227633,-0.421230,-0.365124,-0.442605,-0.431695,-0.524515,0.000000,0.000000,0.000000,0.000000,0.000000,0.000000,0.000000,0.000000,0.000000,0.000000,0.000000,0.000000,0.000000,0.000000,0.000000,0.000000,0.000000,1.000000
0.252287,0.802158,0.866192,1.053179,1.226619,1.269306,1.378011,1.396879,1.311492,1.459591,1.195448,1.179238,0.880622,0.660843,0.473842,0.100149,0.002351,-0.108712,-0.178366,-0.199952,-0.416672,-0.332337,-0.359630,-0.377435,-0.291438,-0.392728,-0.280608,-0.278052,-0.286722,-0.191763,-0.184360,-0.067569,-0.171167,-0.143236,-0.088224,-0.238422,-0.075418,-0.198888,-0.100620,-0.114194,-0.227902,-0.169359,-0.238313,-0.239874,-0.289618,-0.444681,-0.390845,-0.469731,-0.480285,-0.503900,-0.566762,-0.506332,-0.659004,-0.603292,-0.548272,-0.634731,-0.586498,-0.636909,-0.661389,-0.600549,-0.631767,-0.491531,-0.533873,-0.556918,-0.597413,-0.677125,-0.555667,-0.791859,-0.849234,-0.793741,-0.579837,-0.455393,-0.639090,-0.632958,-0.695418,-0.805069,-0.683355,-0.770808,-0.691869,-0.678525,-0.740585,-0.655335,-0.661228,-0.766640,-0.893355,-0.452262,0.859680,3.629482,6.439060,6.197109,0.916725,-2.713168,-2.118214,-0.533109,-0.365065,-0.585993,-0.458784,-0.667041,-0.495131,-0.630936,-0.577394,-0.501700,-0.583984,-0.490224,-0.581031,-0.492975,-0.382087,-0.489594,-0.368533,-0.363063,-0.378196,-0.312618,-0.289135,-0.088660,-0.042815,0.017028,0.243276,0.286110,0.530355,0.591692,0.806203,0.951515,1.014366,1.209504,1.219891,1.309538,1.434105,1.363292,1.401817,1.237398,1.143647,1.003605,0.736816,0.607456,0.263614,0.134753,0.044788,-0.118014,-0.119941,-0.193901,-0.253728,-0.271701,-0.291037,-0.237077,-0.321832,-0.267896,-0.194473,-0.241396,-0.139316,-0.195865,-0.121548,-0.052861,-0.126738,-0.059837,-0.140279,-0.022468,-0.020586,-0.064441,-0.047507,-0.107845,-0.059131,-0.067606,-0.209107,-0.070140,-0.205334,-0.174822,-0.379541,0.000000,0.000000,0.000000,0.000000,0.000000,0.000000,0.000000,0.000000,0.000000,0.000000,0.000000,0.000000,0.000000,0.000000,0.000000,0.000000,0.000000,0.000000,0.000000,0.000000,1.000000
0.138014,0.436152,0.473596,0.745893,0.817299,0.941839,1.104248,1.097396,1.237958,1.303502,1.244100,1.268244,1.060522,1.013588,0.788492,0.572533,0.390570,0.047999,-0.026146,-0.160220,-0.291643,-0.285121,-0.385081,-0.417029,-0.452217,-0.440251,-0.413151,-0.498286,-0.401085,-0.370774,-0.392660,-0.292686,-0.374342,-0.238365,-0.242310,-0.268304,-0.236477,-0.291534,-0.161967,-0.194292,-0.223610,-0.209103,-0.282526,-0.187952,-0.280303,-0.340814,-0.250597,-0.363502,-0.379393,-0.510612,-0.459901,-0.419935,-0.582963,-0.526899,-0.669102,-0.753019,-0.698643,-0.762799,-0.699008,-0.788316,-0.696234,-0.662459,-0.787980,-0.704951,-0.756713,-0.673927,-0.609325,-0.706724,-0.590041,-0.657608,-0.667554,-0.806859,-0.996401,-0.805342,-0.602708,-0.594104,-0.573154,-0.705386,-0.658830,-0.778156,-0.739145,-0.706873,-0.747133,-0.658696,-0.670740,-0.668520,-0.578338,-0.869062,-0.645036,-0.065509,1.978814,4.854717,6.669344,4.743813,-0.486096,-2.676929,-1.766297,-0.479358,-0.286019,-0.549477,-0.450176,-0.494478,-0.571999,-0.489132,-0.538739,-0.486881,-0.529120,-0.573058,-0.432025,-0.458913,-0.424754,-0.382735,-0.385141,-0.251218,-0.318695,-0.262295,-0.192581,-0.170402,0.035034,0.003699,0.166459,0.305167,0.410290,0.616313,0.647602,0.854333,0.982930,1.076757,1.231800,1.190061,1.515981,1.523385,1.479341,1.568595,1.425402,1.464421,1.227142,1.018609,0.945552,0.614537,0.462478,0.247707,0.072871,0.066043,-0.108617,-0.163265,-0.221240,-0.281529,-0.202164,-0.334482,-0.247413,-0.270658,-0.282722,-0.243908,-0.313475,-0.184198,-0.186690,-0.136260,-0.043601,-0.110177,0.004803,-0.036143,-0.064322,0.009835,-0.077377,0.038427,-0.039041,-0.023327,-0.048987,-0.124727,-0.126915,0.000000,0.000000,0.000000,0.000000,0.000000,0.000000,0.000000,0.000000,0.000000,0.000000,0.000000,0.000000,0.000000,0.000000,0.000000,0.000000,1.000000
0.057022,0.421184,0.507386,0.581268,0.765601,0.862125,0.969247,1.074524,1.065695,1.381051,1.308577,1.331653,1.362091,1.252781,1.278373,1.022949,0.881431,0.780229,0.479880,0.363833,0.145102,0.026321,0.005055,-0.158529,-0.185753,-0.258797,-0.282357,-0.232076,-0.348556,-0.250052,-0.299645,-0.282571,-0.272471,-0.315995,-0.196467,-0.213466,-0.146618,-0.083569,-0.137458,-0.023658,-0.088364,-0.083328,-0.040543,-0.103318,-0.002839,-0.080873,-0.058467,-0.087718,-0.166109,-0.124176,-0.198064,-0.223411,-0.217837,-0.338335,-0.238867,-0.377777,-0.382214,-0.366482,-0.475697,-0.437910,-0.476718,-0.489628,-0.489038,-0.585708,-0.472781,-0.582166,-0.558603,-0.573512,-0.657243,-0.491105,-0.542761,-0.575532,-0.516455,-0.607819,-0.470817,-0.557106,-0.641930,-0.756686,-0.715004,-0.401649,-0.496411,-0.482103,-0.522918,-0.611560,-0.567929,-0.706470,-0.610903,-0.628210,-0.688241,-0.586905,-0.663211,-0.610695,-0.560299,-0.771093,-0.804473,-0.625080,0.143303,2.303516,5.189392,7.108607,4.807687,-0.537085,-2.729867,-2.056001,-0.703813,-0.339271,-0.502837,-0.456812,-0.562948,-0.540302,-0.639525,-0.603040,-0.573335,-0.609274,-0.531416,-0.594057,-0.508988,-0.492382,-0.555665,-0.411070,-0.467841,-0.376172,-0.387895,-0.395205,-0.253255,-0.335714,-0.197945,-0.101777,-0.058353,0.070775,0.092053,0.282617,0.397923,0.501615,0.723398,0.749992,0.910031,1.000630,1.051129,1.207862,1.197819,1.268728,1.281737,1.241535,1.280805,1.063610,0.993784,0.813295,0.560774,0.459575,0.189826,0.039441,-0.075737,-0.274231,-0.208048,-0.414774,-0.419737,-0.448374,-0.486082,-0.465620,-0.523676,-0.475820,-0.416598,-0.484430,-0.372949,-0.476395,-0.368520,-0.359182,-0.409170,-0.337463,-0.346056,-0.279759,-0.270996,-0.315361,-0.251233,-0.355502,-0.248478,-0.369671,0.000000,0.000000,0.000000,0.000000,0.000000,0.000000,0.000000,0.000000,0.000000,1.000000
-0.031154,0.286264,0.248406,0.495127,0.565181,0.715583,0.909163,0.949809,1.111621,1.198089,1.253752,1.416776,1.387160,1.483554,1.464335,1.452246,1.460527,1.243358,1.175462,0.973175,0.724143,0.625398,0.327231,0.211905,0.056693,-0.104519,-0.058063,-0.269092,-0.258004,-0.296832,-0.329153,-0.307015,-0.376354,-0.298689,-0.272309,-0.313824,-0.218779,-0.319189,-0.195748,-0.207701,-0.247928,-0.168580,-0.191052,-0.099617,-0.128503,-0.134658,-0.109203,-0.177601,-0.104971,-0.180033,-0.198529,-0.135188,-0.279657,-0.217511,-0.340356,-0.340677,-0.343250,-0.464013,-0.414722,-0.469468,-0.510315,-0.473988,-0.590057,-0.514647,-0.585023,-0.571937,-0.537762,-0.649903,-0.552744,-0.588132,-0.588663,-0.543806,-0.588327,-0.448821,-0.560239,-0.542092,-0.493542,-0.558132,-0.572021,-0.739773,-0.845841,-0.565732,-0.536924,-0.468259,-0.556325,-0.650587,-0.605652,-0.734482,-0.665101,-0.712673,-0.705217,-0.659137,-0.710641,-0.650971,-0.640471,-0.729216,-0.813916,-0.717482,0.016686,2.018186,5.369404,7.313801,4.035559,-1.415955,-2.884681,-1.545202,-0.430029,-0.482100,-0.469678,-0.546275,-0.625122,-0.613901,-0.706685,-0.569750,-0.608337,-0.568148,-0.526426,-0.604008,-0.436375,-0.500929,-0.486853,-0.426165,-0.450245,-0.340028,-0.376023,-0.329302,-0.239380,-0.227187,-0.088794,-0.107259,0.032635,0.184264,0.219199,0.476088,0.561599,0.697196,0.837040,0.816156,1.035354,1.064787,1.159873,1.293278,1.255311,1.297955,1.134480,1.037988,0.902556,0.662255,0.538016,0.317742,0.202882,0.067558,-0.163415,-0.153292,-0.320804,-0.364104,-0.372869,-0.424411,-0.332943,-0.427871,-0.358277,-0.306678,-0.376857,-0.307188,-0.356691,-0.252044,-0.194169,-0.287770,-0.115813,-0.264529,-0.200735,-0.186203,-0.227840,-0.159033,-0.251564,-0.222058,-0.232030,-0.374664,-0.212367,-0.451259,0.000000,0.000000,0.000000,0.000000,0.000000,0.000000,0.000000,1.000000
0.056756,0.379097,0.374483,0.689944,0.726954,0.922331,1.013981,1.032546,1.250787,1.273689,1.390113,1.515044,1.469200,1.515341,1.314405,1.242422,1.060227,0.831156,0.686268,0.459390,0.347362,0.186653,-0.042591,-0.019158,-0.224448,-0.226305,-0.271489,-0.287626,-0.217651,-0.309696,-0.222930,-0.185036,-0.257844,-0.171829,-0.244865,-0.090008,-0.088846,-0.136713,0.013927,-0.143746,-0.056679,-0.060580,-0.094681,-0.019839,-0.141815,-0.066073,-0.140572,-0.223200,-0.109038,-0.312012,-0.260182,-0.298589,-0.394258,-0.335071,-0.439918,-0.429816,-0.444146,-0.487780,-0.423660,-0.585340,-0.504860,-0.572720,-0.585305,-0.533422,-0.613774,-0.530717,-0.555891,-0.580272,-0.408038,-0.610172,-0.587895,-0.568671,-0.604741,-0.503348,-0.760909,-0.877032,-0.848669,-0.575743,-0.492003,-0.619920,-0.508933,-0.635895,-0.703106,-0.720443,-0.754500,-0.667061,-0.728045,-0.678242,-0.529840,-0.644032,-0.686125,-0.842791,-0.656570,0.086797,2.162229,5.377606,7.047425,3.972594,-1.382969,-2.897570,-1.659951,-0.462824,-0.431196,-0.524327,-0.546076,-0.592164,-0.581635,-0.613203,-0.541542,-0.615018,-0.516097,-0.595458,-0.636762,-0.550455,-0.622534,-0.438204,-0.421958,-0.408105,-0.377419,-0.445828,-0.306789,-0.311187,-0.252268,-0.092899,-0.113950,0.119709,0.193123,0.285161,0.488357,0.567596,0.828948,0.927596,1.104440,1.214226,1.217236,1.305873,1.315838,1.327602,1.300890,1.088754,0.995826,0.734422,0.538841,0.336868,0.083868,0.010482,-0.152698,-0.228203,-0.300681,-0.501699,-0.418285,-0.425039,-0.344803,-0.357852,-0.446887,-0.293369,-0.316817,-0.261224,-0.232057,-0.304554,-0.187912,-0.238890,-0.165764,-0.096218,-0.237363,-0.164728,-0.262941,-0.231992,-0.187573,-0.241006,-0.213186,-0.306309,-0.322725,-0.328315,-0.523187,0.000000,0.000000,0.000000,0.000000,0.000000,0.000000,0.000000,0.000000,0.000000,0.000000,0.000000,0.000000,1.000000
0.070398,0.321025,0.379446,0.599006,0.666359,0.945437,1.015633,1.218517,1.292871,1.314145,1.392445,1.402760,1.413253,1.374502,1.158277,1.073680,0.793452,0.621018,0.398336,0.167470,0.089138,-0.070912,-0.140991,-0.220398,-0.417370,-0.317990,-0.339917,-0.242742,-0.280386,-0.346894,-0.203386,-0.223855,-0.170307,-0.140957,-0.217305,-0.090101,-0.156880,-0.063828,-0.016383,-0.140949,-0.081176,-0.167540,-0.147515,-0.089483,-0.160943,-0.111219,-0.231543,-0.212858,-0.265561,-0.383500,-0.321439,-0.400429,-0.417755,-0.380690,-0.523506,-0.440675,-0.552910,-0.509147,-0.476411,-0.545732,-0.504303,-0.633497,-0.638718,-0.590280,-0.649309,-0.605222,-0.589641,-0.489722,-0.473610,-0.620250,-0.526224,-0.624845,-0.577687,-0.700037,-0.946251,-0.835284,-0.731506,-0.453331,-0.466231,-0.537447,-0.523358,-0.655428,-0.664929,-0.652424,-0.697218,-0.607525,-0.655921,-0.617025,-0.561688,-0.615847,-0.565593,-0.767311,-0.471492,0.306859,2.518152,5.424668,6.808376,4.627957,-0.638288,-2.796996,-1.492042,-0.484936,-0.422456,-0.510977,-0.507193,-0.481762,-0.628327,-0.601827,-0.531534,-0.585413,-0.492898,-0.557709,-0.477870,-0.445263,-0.509248,-0.410824,-0.480591,-0.348525,-0.312374,-0.399530,-0.254934,-0.231631,-0.126679,-0.062363,-0.060744,0.170225,0.216816,0.402952,0.587983,0.687097,0.898718,0.939326,1.116848,1.200626,1.210582,1.383921,1.232190,1.297453,1.296865,1.096116,1.039658,0.797191,0.626801,0.453209,0.130477,0.054461,-0.131294,-0.240156,-0.287819,-0.407748,-0.364309,-0.529768,-0.464807,-0.444575,-0.509892,-0.371728,-0.460125,-0.417936,-0.370709,-0.370763,-0.205233,-0.285723,-0.215332,-0.157894,-0.304738,-0.132084,-0.224802,-0.163228,-0.139848,-0.244224,-0.171390,-0.238762,-0.307076,-0.255056,-0.491995,0.000000,0.000000,0.000000,0.000000,0.000000,0.000000,0.000000,0.000000,0.000000,0.000000,0.000000,0.000000,1.000000
0.071714,0.317071,0.434261,0.650854,0.722300,0.947008,0.969883,1.158553,1.223015,1.247872,1.403741,1.259064,1.326593,1.317536,1.122329,1.069723,0.823789,0.670426,0.486330,0.182101,0.112222,-0.075714,-0.168336,-0.224332,-0.330618,-0.292744,-0.459159,-0.372341,-0.379636,-0.419218,-0.295805,-0.387853,-0.330709,-0.298767,-0.283401,-0.127058,-0.225515,-0.119189,-0.112227,-0.218378,-0.060265,-0.161317,-0.079355,-0.083217,-0.175990,-0.088550,-0.198299,-0.205807,-0.228927,-0.369011,-0.231281,-0.382158,-0.373633,-0.414082,-0.504500,-0.418418,-0.587924,-0.481507,-0.545276,-0.583450,-0.487480,-0.615774,-0.558362,-0.610237,-0.616402,-0.538615,-0.577420,-0.483789,-0.544105,-0.586252,-0.458034,-0.653747,-0.665829,-0.848057,-0.759751,-0.475608,-0.565415,-0.497694,-0.654710,-0.686986,-0.696006,-0.750770,-0.647825,-0.693479,-0.697039,-0.587903,-0.657776,-0.555491,-0.793932,-0.794458,-0.318039,1.193543,4.538176,7.092088,5.261964,-0.706548,-3.029816,-1.572377,-0.397326,-0.469114,-0.498648,-0.583894,-0.582600,-0.628054,-0.615320,-0.533386,-0.625224,-0.535582,-0.569509,-0.560146,-0.455234,-0.510508,-0.395885,-0.391116,-0.371271,-0.297422,-0.326859,-0.184218,-0.166391,-0.075846,0.109985,0.161836,0.365253,0.451334,0.678185,0.869310,0.902162,1.115619,1.146374,1.260978,1.363563,1.288186,1.420462,1.312643,1.230026,1.069976,0.895932,0.749412,0.481069,0.251398,0.192965,-0.071708,-0.022152,-0.245341,-0.239236,-0.275540,-0.382418,-0.267113,-0.366167,-0.332188,-0.255795,-0.336996,-0.251711,-0.278718,-0.160173,-0.143856,-0.218023,-0.099369,-0.113648,-0.134072,-0.133755,-0.255766,-0.135266,-0.239232,-0.240730,-0.241320,-0.254002,-0.253973,-0.317864,-0.357106,-0.321550,-0.520784,0.000000,0.000000,0.000000,0.000000,0.000000,0.000000,0.000000,0.000000,0.000000,0.000000,0.000000,0.000000,0.000000,0.000000,0.000000,1.000000
0.112819,0.531563,0.648625,0.882843,0.865598,1.131359,1.085539,1.280550,1.286447,1.285041,1.361819,1.271478,1.162799,1.022386,0.830607,0.710944,0.395226,0.249974,0.128888,-0.072029,-0.048824,-0.266381,-0.227971,-0.299372,-0.370461,-0.257654,-0.387880,-0.292880,-0.279403,-0.317445,-0.256110,-0.263830,-0.146725,-0.158019,-0.215745,-0.077843,-0.142427,-0.112637,-0.174467,-0.232399,-0.145982,-0.247478,-0.240320,-0.237738,-0.262008,-0.245484,-0.349240,-0.318854,-0.377524,-0.456186,-0.363626,-0.485205,-0.472900,-0.527422,-0.582671,-0.507232,-0.604189,-0.544491,-0.626674,-0.625952,-0.558138,-0.683547,-0.632342,-0.594155,-0.677660,-0.522399,-0.604120,-0.488500,-0.569340,-0.581658,-0.521589,-0.712212,-0.798218,-0.870088,-0.616264,-0.486726,-0.592459,-0.572843,-0.709582,-0.722193,-0.670708,-0.764257,-0.628093,-0.658442,-0.647803,-0.567019,-0.637794,-0.757811,-0.824198,-0.263092,1.577085,4.842612,7.201967,4.919737,-1.049813,-2.905932,-1.609266,-0.381322,-0.442455,-0.438356,-0.441430,-0.643487,-0.545707,-0.625666,-0.587058,-0.525211,-0.554704,-0.467571,-0.511564,-0.436599,-0.413184,-0.466189,-0.344453,-0.403777,-0.343530,-0.255569,-0.257555,-0.119522,-0.100930,0.016160,0.146166,0.191648,0.410916,0.477073,0.652669,0.831973,0.866814,1.008889,0.983842,1.160423,1.245362,1.253791,1.344935,1.241422,1.197083,1.097534,0.927610,0.815067,0.505782,0.421674,0.223805,0.018382,-0.041816,-0.211416,-0.168222,-0.243888,-0.333926,-0.237875,-0.388397,-0.271425,-0.273131,-0.303096,-0.183142,-0.221867,-0.107641,-0.106413,-0.154455,-0.028502,-0.135821,-0.048437,-0.052557,-0.146626,-0.030993,-0.121006,-0.064648,-0.092622,-0.214169,-0.157976,-0.299367,-0.186697,-0.373018,0.000000,0.000000,0.000000,0.000000,0.000000,0.000000,0.000000,0.000000,0.000000,0.000000,0.000000,0.000000,0.000000,0.000000,0.000000,0.000000,1.000000
0.042145,0.326792,0.366619,0.600769,0.736340,0.799870,0.926138,0.905878,1.124743,1.161664,1.205380,1.270222,1.148434,1.117397,0.976349,0.820777,0.666070,0.348610,0.287630,0.030593,-0.135970,-0.223969,-0.382816,-0.317492,-0.443317,-0.482281,-0.416048,-0.567915,-0.408822,-0.463368,-0.444848,-0.344487,-0.378690,-0.242108,-0.283374,-0.291324,-0.182638,-0.301608,-0.176294,-0.232532,-0.289921,-0.180069,-0.290342,-0.195267,-0.283711,-0.358666,-0.341934,-0.451871,-0.366588,-0.528682,-0.573185,-0.507190,-0.615456,-0.526031,-0.653194,-0.664735,-0.630776,-0.691737,-0.633624,-0.697269,-0.721526,-0.614834,-0.702956,-0.642188,-0.726218,-0.715643,-0.684989,-0.732581,-0.601136,-0.616008,-0.592307,-0.573845,-0.660590,-0.625860,-0.730660,-0.857427,-0.884012,-0.866151,-0.511282,-0.577897,-0.576807,-0.603152,-0.696253,-0.648565,-0.730073,-0.682965,-0.653541,-0.784948,-0.690141,-0.728966,-0.648488,-0.600774,-0.713528,-0.776248,-0.631023,0.034972,1.828648,4.713055,6.903979,5.399665,0.415789,-2.434556,-2.132552,-0.683757,-0.307965,-0.455199,-0.345163,-0.494911,-0.497981,-0.579358,-0.509502,-0.449836,-0.552336,-0.442591,-0.512364,-0.449791,-0.376885,-0.474134,-0.329222,-0.415732,-0.299936,-0.244680,-0.309039,-0.192506,-0.197568,-0.085487,-0.017334,-0.016729,0.209589,0.240535,0.380427,0.526051,0.663127,0.878142,0.876242,1.124486,1.203095,1.238473,1.378096,1.352126,1.433601,1.439718,1.292831,1.309068,1.125044,1.037726,0.824280,0.531899,0.413711,0.210410,0.126864,0.025991,-0.057777,-0.064624,-0.125955,-0.078639,-0.156852,-0.155075,-0.049320,-0.143418,-0.052366,-0.037184,-0.042444,0.070838,-0.005102,0.110066,0.114679,0.095875,0.145975,0.072197,0.093889,0.069935,0.013680,0.123608,-0.078343,0.032549,-0.085410,0.000000,0.000000,0.000000,0.000000,0.000000,0.000000,0.000000,0.000000,0.000000,0.000000,1.000000
-0.205617,-0.049145,-0.016203,0.138100,0.262902,0.422254,0.601205,0.610286,0.870010,0.903917,0.970567,1.085764,1.057149,1.154099,1.118452,0.997272,1.003042,0.809589,0.741057,0.489959,0.238009,0.117365,-0.077929,-0.143278,-0.255855,-0.314878,-0.333263,-0.380121,-0.336457,-0.428322,-0.389705,-0.313261,-0.404670,-0.288924,-0.313033,-0.275838,-0.199772,-0.258939,-0.138023,-0.157479,-0.158936,-0.118990,-0.202245,-0.152738,-0.219817,-0.218093,-0.165321,-0.336815,-0.225132,-0.357011,-0.398425,-0.360652,-0.534896,-0.482994,-0.497257,-0.563460,-0.534628,-0.655806,-0.524048,-0.614530,-0.634364,-0.615892,-0.660458,-0.530988,-0.613725,-0.635434,-0.587862,-0.652830,-0.526417,-0.640423,-0.627852,-0.609725,-0.695525,-0.584044,-0.661568,-0.697001,-0.756655,-0.904415,-0.662058,-0.523282,-0.581136,-0.524682,-0.675519,-0.614676,-0.737826,-0.689055,-0.726960,-0.758581,-0.662964,-0.725990,-0.694529,-0.602531,-0.684608,-0.563620,-0.743852,-0.771099,-0.470028,0.029745,2.027468,4.643978,6.805766,5.757255,0.801142,-2.553494,-2.352590,-0.995802,-0.253728,-0.456827,-0.405191,-0.538992,-0.526460,-0.528947,-0.565322,-0.441813,-0.505568,-0.466538,-0.471894,-0.514922,-0.359200,-0.403474,-0.331783,-0.370808,-0.355276,-0.264459,-0.283035,-0.189760,-0.136030,-0.121957,0.061785,-0.015797,0.183331,0.242947,0.379012,0.563453,0.615367,0.775612,0.980986,1.043994,1.266885,1.279630,1.384627,1.397008,1.415172,1.519922,1.407566,1.430727,1.271497,1.027247,0.927260,0.623634,0.435390,0.193178,-0.001042,0.051650,-0.139650,-0.164777,-0.212107,-0.244790,-0.196495,-0.324846,-0.203611,-0.189402,-0.245337,-0.105960,-0.194756,-0.099771,-0.099392,-0.092817,-0.005932,-0.109481,-0.014764,-0.034090,-0.049579,-0.007701,-0.080323,-0.008992,-0.112530,-0.091666,-0.044074,0.000000,0.000000,0.000000,0.000000,0.000000,0.000000,0.000000,0.000000,1.000000
-0.029935,0.163783,0.205915,0.402208,0.468542,0.759013,0.763840,0.985417,1.051426,1.102297,1.297349,1.261458,1.344401,1.430270,1.312890,1.365190,1.240893,1.174685,0.955794,0.686710,0.613673,0.337981,0.172639,0.044897,-0.172561,-0.146377,-0.260713,-0.247129,-0.279125,-0.231509,-0.204834,-0.291380,-0.171414,-0.192103,-0.273050,-0.096839,-0.186676,-0.122121,-0.135013,-0.133315,-0.022387,-0.091035,-0.053182,-0.024905,-0.150922,-0.071726,-0.120083,-0.087219,-0.170922,-0.295972,-0.221306,-0.308326,-0.262567,-0.334874,-0.374553,-0.378925,-0.471765,-0.411690,-0.438642,-0.573833,-0.513797,-0.622430,-0.560382,-0.546988,-0.620636,-0.565741,-0.677570,-0.569323,-0.616754,-0.718353,-0.601746,-0.688412,-0.558812,-0.577261,-0.609825,-0.484156,-0.603213,-0.558441,-0.563352,-0.777192,-0.843197,-0.941329,-0.662846,-0.499230,-0.562795,-0.459215,-0.691540,-0.670375,-0.706007,-0.809575,-0.680132,-0.769084,-0.677034,-0.648703,-0.767486,-0.613942,-0.714186,-0.707159,-0.817789,-0.675255,0.246810,2.411901,5.383807,7.071986,4.543230,-0.793041,-2.931533,-1.817385,-0.587304,-0.467201,-0.458027,-0.580519,-0.574763,-0.556903,-0.651610,-0.592168,-0.660486,-0.515096,-0.485486,-0.547929,-0.425071,-0.519035,-0.440523,-0.451957,-0.449349,-0.316771,-0.407908,-0.302575,-0.233570,-0.249006,-0.011429,-0.024438,0.125220,0.229216,0.332404,0.521981,0.502345,0.720967,0.884265,1.000154,1.185299,1.143776,1.342250,1.402265,1.340416,1.354260,1.156924,1.090767,0.938621,0.633384,0.481505,0.174543,0.090591,-0.066562,-0.164691,-0.083728,-0.216162,-0.227643,-0.271280,-0.315654,-0.212997,-0.304653,-0.244270,-0.198421,-0.201729,-0.115950,-0.176210,-0.096834,-0.105832,-0.157984,-0.028142,-0.117409,-0.084259,-0.125627,-0.118107,-0.104483,-0.234281,-0.177418,-0.220392,-0.355446,-0.248562,-0.434161,0.000000,0.000000,0.000000,0.000000,0.000000,1.000000
0.030399,0.206688,0.291102,0.488369,0.458694,0.691582,0.837982,0.966409,1.136147,1.101438,1.300974,1.350780,1.291251,1.302596,1.098729,1.046383,0.874027,0.583894,0.424985,0.125363,0.049909,-0.114775,-0.194998,-0.119803,-0.259943,-0.256126,-0.315925,-0.338658,-0.249852,-0.340156,-0.269650,-0.233814,-0.230573,-0.148150,-0.215596,-0.117714,-0.157152,-0.176758,-0.067970,-0.153443,-0.119440,-0.163270,-0.149474,-0.145037,-0.280373,-0.192330,-0.288379,-0.365007,-0.309507,-0.438238,-0.459589,-0.496500,-0.531095,-0.448386,-0.610319,-0.568146,-0.647081,-0.708491,-0.596938,-0.676418,-0.624445,-0.625298,-0.670714,-0.620803,-0.743907,-0.608404,-0.652636,-0.666382,-0.533281,-0.593102,-0.596901,-0.559344,-0.589422,-0.657144,-0.867950,-0.809104,-0.647424,-0.545407,-0.498779,-0.635801,-0.560019,-0.686051,-0.698543,-0.638967,-0.712785,-0.641819,-0.657437,-0.699179,-0.593632,-0.664999,-0.591279,-0.840134,-0.730104,-0.173391,1.311327,4.299491,6.686684,5.829802,0.492667,-3.044365,-2.243485,-0.890848,-0.429551,-0.538611,-0.496700,-0.509964,-0.652223,-0.670219,-0.576701,-0.627027,-0.520105,-0.627554,-0.578124,-0.510917,-0.540796,-0.420698,-0.418012,-0.420354,-0.322186,-0.338831,-0.222516,-0.199658,-0.114389,0.058615,0.097227,0.308915,0.409398,0.523421,0.717697,0.815060,1.021637,1.009104,1.146677,1.318236,1.270118,1.483912,1.389797,1.413785,1.345701,1.140283,1.045909,0.793727,0.649758,0.469890,0.185778,0.170937,-0.059976,-0.094496,-0.124123,-0.233637,-0.179790,-0.259884,-0.237521,-0.240187,-0.263116,-0.145113,-0.251448,-0.160963,-0.060359,-0.103876,0.001289,-0.064770,-0.016073,-0.001719,-0.052080,0.037028,-0.082693,0.003792,0.010994,-0.093243,-0.018211,-0.151818,-0.147582,-0.118674,-0.251511,0.000000,0.000000,0.000000,0.000000,0.000000,0.000000,0.000000,0.000000,0.000000,0.000000,0.000000,0.000000,1.000000
0.039534,0.396455,0.426210,0.673944,0.727054,0.967568,0.898160,1.112527,1.203043,1.212708,1.388950,1.292106,1.324253,1.227825,1.029235,0.937687,0.664471,0.560917,0.328286,0.099521,0.066526,-0.165041,-0.163954,-0.225106,-0.308298,-0.257353,-0.350015,-0.298619,-0.335849,-0.314985,-0.229758,-0.336100,-0.204431,-0.148458,-0.169703,-0.072495,-0.156334,-0.070439,-0.105525,-0.107850,-0.056742,-0.166076,-0.050635,-0.096726,-0.163345,-0.100651,-0.260856,-0.191626,-0.239877,-0.296760,-0.301701,-0.400948,-0.337510,-0.367653,-0.430022,-0.418034,-0.532288,-0.490837,-0.563630,-0.538967,-0.477860,-0.628105,-0.527328,-0.570343,-0.551879,-0.490992,-0.611170,-0.551873,-0.567234,-0.515410,-0.425057,-0.539326,-0.472149,-0.518230,-0.471660,-0.528077,-0.758000,-0.744697,-0.598008,-0.479990,-0.469798,-0.544829,-0.551671,-0.664228,-0.715076,-0.639384,-0.749762,-0.659223,-0.664345,-0.666348,-0.631912,-0.685553,-0.534629,-0.658751,-0.819849,-0.615170,-0.192517,1.766626,4.912043,7.224278,5.516347,-0.389851,-2.982721,-1.880535,-0.642047,-0.347797,-0.501603,-0.377334,-0.523222,-0.520526,-0.517310,-0.549078,-0.454287,-0.475931,-0.467384,-0.415768,-0.465591,-0.323119,-0.431239,-0.331739,-0.309310,-0.294094,-0.186618,-0.250510,-0.144019,-0.013882,0.013479,0.229802,0.265928,0.435909,0.630378,0.728237,0.930914,0.968681,1.142598,1.205488,1.226868,1.363731,1.301635,1.310722,1.218253,1.024750,0.897310,0.592910,0.441877,0.255903,0.069202,-0.017393,-0.209266,-0.194607,-0.273110,-0.352630,-0.282768,-0.424052,-0.280189,-0.322705,-0.318399,-0.188394,-0.230894,-0.160380,-0.268350,-0.280364,-0.118325,-0.191879,-0.086476,-0.131005,-0.182059,-0.055906,-0.192177,-0.109502,-0.169949,-0.201317,-0.106302,-0.273063,-0.154550,-0.369843,-0.373209,-0.420636,0.000000,0.000000,0.000000,0.000000,0.000000,0.000000,0.000000,0.000000,0.000000,1.000000
0.031530,0.532262,0.599264,0.781831,0.929722,0.995814,1.171082,1.208845,1.255037,1.381594,1.295457,1.327407,1.182599,1.011685,0.850147,0.543150,0.404454,0.196099,0.025603,-0.073097,-0.264787,-0.226159,-0.341269,-0.383015,-0.339413,-0.469575,-0.310501,-0.379907,-0.346468,-0.227717,-0.271647,-0.195814,-0.325843,-0.307021,-0.157693,-0.230297,-0.118311,-0.175715,-0.217731,-0.088881,-0.240319,-0.136083,-0.222687,-0.227893,-0.156667,-0.303290,-0.208785,-0.397003,-0.450587,-0.407874,-0.531013,-0.425115,-0.534840,-0.607102,-0.501638,-0.674868,-0.555444,-0.649171,-0.615055,-0.556234,-0.672461,-0.598769,-0.606642,-0.602095,-0.558975,-0.661401,-0.546645,-0.583087,-0.589382,-0.515131,-0.609238,-0.513404,-0.604090,-0.756981,-0.815867,-0.845291,-0.495806,-0.453614,-0.532395,-0.572104,-0.669940,-0.622804,-0.717612,-0.672870,-0.656077,-0.695499,-0.600422,-0.702510,-0.653655,-0.506855,-0.660286,-0.765496,-0.469222,0.409083,2.936133,5.773199,7.151277,2.952814,-2.394475,-2.534102,-1.143450,-0.269952,-0.497465,-0.413036,-0.444646,-0.584148,-0.498844,-0.513762,-0.479111,-0.368560,-0.546336,-0.396494,-0.429894,-0.400213,-0.324027,-0.373964,-0.242898,-0.323132,-0.233513,-0.117118,-0.175600,-0.009575,0.084368,0.241996,0.421715,0.453731,0.699567,0.796144,0.929095,1.135380,1.173650,1.406635,1.340570,1.352453,1.422014,1.327904,1.330471,1.229007,0.982180,0.784231,0.461249,0.324714,0.090173,-0.005212,-0.022278,-0.207838,-0.137280,-0.240745,-0.193567,-0.131893,-0.280874,-0.225410,-0.193792,-0.174248,-0.060034,-0.095100,0.016835,0.009199,-0.057564,-0.019050,-0.091731,0.042943,-0.026650,-0.050311,-0.089727,-0.132286,-0.100765,-0.204857,-0.220962,-0.188795,-0.333316,-0.254069,-0.376311,-0.354187,-0.439987,0.000000,0.000000,0.000000,0.000000,0.000000,0.000000,0.000000,0.000000,0.000000,0.000000,0.000000,0.000000,1.000000
0.201152,0.590772,0.644748,0.808650,0.998200,1.054464,1.277937,1.222259,1.224060,1.304669,1.198924,1.210884,1.097398,0.853494,0.643123,0.320633,0.175243,-0.058889,-0.159811,-0.173350,-0.367598,-0.288740,-0.402137,-0.344532,-0.291009,-0.436505,-0.383781,-0.347170,-0.331436,-0.209541,-0.252433,-0.129052,-0.148449,-0.205895,-0.176591,-0.240564,-0.111099,-0.176701,-0.207700,-0.240064,-0.292205,-0.248870,-0.371098,-0.366957,-0.357303,-0.480764,-0.425881,-0.519063,-0.541914,-0.548815,-0.678201,-0.555513,-0.630864,-0.690963,-0.646251,-0.760089,-0.650597,-0.777791,-0.795092,-0.735453,-0.807137,-0.771266,-0.769635,-0.746720,-0.650598,-0.703771,-0.648786,-0.723363,-0.742337,-0.689519,-0.841046,-0.836564,-0.987655,-0.933009,-0.614113,-0.744882,-0.653133,-0.701304,-0.771082,-0.711693,-0.816524,-0.640634,-0.724392,-0.719380,-0.667531,-0.755647,-0.630582,-0.632439,-0.843174,-0.656025,-0.220787,1.702337,4.835585,6.977382,4.623262,-1.108611,-2.632297,-1.284761,-0.290381,-0.355763,-0.475606,-0.415530,-0.594927,-0.568883,-0.446229,-0.504713,-0.414061,-0.452190,-0.429751,-0.357295,-0.515184,-0.288573,-0.317804,-0.291003,-0.186248,-0.256238,-0.110965,-0.096725,-0.051683,0.104562,0.084729,0.271570,0.366805,0.461566,0.689710,0.734496,0.974051,0.985335,1.135891,1.257162,1.250366,1.380302,1.404101,1.409446,1.456376,1.292155,1.292539,1.048933,0.894100,0.785687,0.456648,0.382237,0.158973,0.079953,0.061046,-0.136670,-0.039778,-0.207638,-0.184405,-0.163776,-0.235369,-0.140291,-0.176612,-0.193158,-0.101879,-0.217974,-0.011110,-0.095783,-0.032160,0.086066,-0.000222,0.090526,0.077281,0.033016,0.066895,0.001858,0.125093,-0.032098,-0.010513,-0.065239,-0.144232,-0.118863,0.000000,0.000000,0.000000,0.000000,0.000000,0.000000,0.000000,0.000000,0.000000,0.000000,0.000000,0.000000,0.000000,0.000000,0.000000,1.000000
0.076377,0.375642,0.524312,0.607098,0.809023,0.833757,0.971253,1.088690,1.074930,1.211904,1.214683,1.238732,1.260822,1.114911,1.108288,0.864514,0.735389,0.612251,0.303246,0.247210,0.011977,-0.021347,-0.080811,-0.234651,-0.155023,-0.321679,-0.273982,-0.276579,-0.332233,-0.232104,-0.297755,-0.270890,-0.226015,-0.302536,-0.108320,-0.219626,-0.107323,-0.040437,-0.109705,-0.008991,-0.057742,-0.064931,-0.065605,-0.089227,-0.001397,-0.160526,-0.110742,-0.198479,-0.250270,-0.196765,-0.295473,-0.293826,-0.324936,-0.440075,-0.390411,-0.442673,-0.407967,-0.442149,-0.545598,-0.441786,-0.524940,-0.487806,-0.538143,-0.577134,-0.447098,-0.590668,-0.545586,-0.538579,-0.593319,-0.467398,-0.566057,-0.494620,-0.484024,-0.527503,-0.422875,-0.546333,-0.536715,-0.684794,-0.779759,-0.591429,-0.474471,-0.385116,-0.487388,-0.584984,-0.529252,-0.655512,-0.596356,-0.625723,-0.625148,-0.553359,-0.722116,-0.568836,-0.558470,-0.592216,-0.724239,-0.721780,-0.137002,1.385949,4.437868,7.101743,6.195139,0.717813,-2.880823,-2.112275,-0.631562,-0.385403,-0.455250,-0.463422,-0.566259,-0.515243,-0.634685,-0.543066,-0.537189,-0.507245,-0.484945,-0.560890,-0.428054,-0.466274,-0.421401,-0.391112,-0.436566,-0.343038,-0.384349,-0.356663,-0.236598,-0.224327,-0.038106,-0.028828,0.105457,0.199466,0.285451,0.534735,0.600811,0.744612,0.905531,0.933458,1.098072,1.082459,1.198449,1.274557,1.218609,1.297908,1.171281,1.080391,0.970379,0.723928,0.639591,0.363736,0.220292,0.027999,-0.134904,-0.122402,-0.330261,-0.352628,-0.367515,-0.424232,-0.374134,-0.474100,-0.404107,-0.388662,-0.465399,-0.381496,-0.431437,-0.322116,-0.298060,-0.273055,-0.152798,-0.262309,-0.190166,-0.191572,-0.214381,-0.144105,-0.240048,-0.220235,-0.305499,-0.379075,-0.251120,-0.343973,0.000000,0.000000,0.000000,0.000000,0.000000,0.000000,0.000000,0.000000,0.000000,1.000000
0.166687,0.426487,0.501236,0.769621,0.788181,0.995488,1.090646,1.163726,1.297663,1.281887,1.427546,1.454013,1.422484,1.490563,1.321756,1.272993,1.096344,0.893604,0.780493,0.497213,0.381418,0.151099,0.054007,0.028125,-0.184183,-0.154985,-0.215109,-0.226370,-0.210516,-0.299046,-0.197082,-0.236490,-0.270163,-0.200968,-0.249056,-0.107185,-0.136524,-0.045133,0.009342,-0.081991,0.011231,-0.028214,-0.011646,0.028404,-0.074052,-0.028553,-0.176037,-0.154646,-0.091183,-0.132237,-0.098658,-0.212758,-0.227089,-0.275285,-0.357113,-0.258866,-0.388146,-0.372240,-0.375053,-0.493685,-0.413215,-0.477984,-0.479037,-0.436277,-0.582532,-0.464222,-0.570342,-0.525937,-0.535825,-0.592068,-0.544787,-0.597040,-0.550257,-0.469057,-0.538003,-0.361191,-0.484292,-0.480867,-0.429789,-0.580629,-0.578994,-0.783075,-0.695331,-0.487096,-0.439703,-0.460096,-0.590057,-0.623899,-0.604897,-0.634106,-0.569584,-0.665809,-0.585190,-0.599052,-0.618980,-0.511401,-0.640336,-0.581960,-0.755778,-0.626441,-0.026954,1.669180,4.833022,7.163533,5.309646,-0.390816,-3.078605,-2.066125,-0.845626,-0.395167,-0.490541,-0.577878,-0.559698,-0.604192,-0.603604,-0.551381,-0.644454,-0.594981,-0.606816,-0.591003,-0.473888,-0.585364,-0.458146,-0.433859,-0.451555,-0.377254,-0.498623,-0.374619,-0.346225,-0.332859,-0.205357,-0.199590,-0.015263,-0.037266,0.084305,0.244416,0.306175,0.502167,0.578881,0.764135,0.902434,0.893104,1.103787,1.107241,1.159038,1.257618,1.181039,1.236166,1.070000,0.968489,0.891254,0.633358,0.494268,0.239062,0.107538,-0.025552,-0.203152,-0.219381,-0.334416,-0.413788,-0.411803,-0.478458,-0.404620,-0.481450,-0.408930,-0.426898,-0.510523,-0.394095,-0.411205,-0.356779,-0.279431,-0.359637,-0.267798,-0.329182,-0.283932,-0.323064,-0.355271,-0.228143,-0.328824,-0.319609,-0.303713,-0.489352,0.000000,0.000000,0.000000,0.000000,0.000000,1.000000
0.070222,0.289952,0.382433,0.556544,0.612925,0.839736,0.881153,1.137310,1.184042,1.247189,1.436869,1.413088,1.509021,1.563358,1.495866,1.546788,1.321402,1.285033,1.124972,0.894728,0.725774,0.471398,0.358348,0.196633,0.039453,0.036725,-0.120365,-0.146263,-0.185109,-0.208890,-0.160576,-0.231054,-0.136765,-0.204016,-0.246209,-0.122250,-0.170716,-0.060893,-0.045754,-0.087368,-0.010910,-0.076010,-0.016485,-0.088440,-0.075614,0.038459,-0.105750,-0.020392,-0.115121,-0.166693,-0.078728,-0.261022,-0.237734,-0.275470,-0.315990,-0.302768,-0.440052,-0.408976,-0.572027,-0.507625,-0.508745,-0.659948,-0.584973,-0.654936,-0.626665,-0.618126,-0.723199,-0.622141,-0.704725,-0.721874,-0.645506,-0.787686,-0.585012,-0.635591,-0.652180,-0.544934,-0.674568,-0.560574,-0.633121,-0.545041,-0.485893,-0.663077,-0.755892,-0.923840,-0.859980,-0.556067,-0.535211,-0.478585,-0.640523,-0.700886,-0.698860,-0.781081,-0.625970,-0.707131,-0.645481,-0.660982,-0.679738,-0.606550,-0.680622,-0.792300,-0.635855,-0.270782,1.349031,4.248517,6.772339,5.911128,0.656199,-2.661876,-2.268892,-0.766517,-0.315848,-0.603467,-0.406281,-0.577304,-0.573506,-0.627000,-0.654071,-0.544873,-0.630899,-0.578873,-0.554647,-0.582154,-0.498119,-0.587557,-0.498322,-0.516303,-0.493094,-0.310889,-0.430864,-0.293225,-0.172096,-0.239026,-0.070230,-0.082853,0.091002,0.203006,0.295157,0.510520,0.584142,0.833495,0.913067,1.015336,1.196016,1.149041,1.284853,1.251773,1.159173,1.206967,1.039618,0.982427,0.732539,0.491251,0.367892,0.096790,0.050646,-0.085290,-0.218716,-0.174076,-0.376227,-0.319259,-0.378895,-0.387194,-0.329512,-0.391416,-0.321294,-0.340834,-0.326856,-0.247071,-0.314568,-0.174833,-0.199701,-0.210044,-0.146602,-0.225965,-0.143671,-0.193823,-0.214711,-0.120968,-0.298395,-0.196774,-0.295301,-0.255124,-0.348557,0.000000,0.000000,0.000000,0.000000,1.000000
-0.107438,0.347328,0.334349,0.528054,0.675389,0.800168,1.031942,1.090323,1.227950,1.373660,1.321788,1.490102,1.376631,1.354523,1.346279,1.192185,1.119017,0.829574,0.629623,0.479087,0.215493,0.211404,0.009479,-0.038914,-0.059952,-0.231767,-0.157376,-0.247915,-0.211702,-0.186930,-0.236443,-0.151899,-0.206231,-0.138833,-0.112181,-0.140744,-0.001944,-0.063788,-0.033391,-0.001662,-0.073527,0.034084,-0.079793,-0.009580,-0.012663,-0.129977,-0.052018,-0.140405,-0.118695,-0.169679,-0.305317,-0.230737,-0.359257,-0.369139,-0.349836,-0.456361,-0.427132,-0.557873,-0.537874,-0.547854,-0.575667,-0.535870,-0.604068,-0.502356,-0.573354,-0.639699,-0.538254,-0.622043,-0.542265,-0.540939,-0.559149,-0.509984,-0.650008,-0.573143,-0.669367,-0.881085,-0.787526,-0.621142,-0.473357,-0.544604,-0.625605,-0.625034,-0.753561,-0.728779,-0.750557,-0.743863,-0.665991,-0.744481,-0.629109,-0.714102,-0.670204,-0.660791,-0.865252,-0.430824,0.787932,3.695778,6.834382,6.090452,0.400468,-3.057862,-2.209770,-0.667467,-0.494384,-0.526909,-0.580418,-0.649914,-0.612812,-0.651306,-0.504686,-0.576973,-0.557290,-0.488331,-0.548615,-0.426482,-0.453488,-0.433378,-0.276633,-0.405240,-0.259388,-0.307631,-0.209492,-0.079496,-0.097387,0.113839,0.185806,0.314960,0.460427,0.588398,0.887267,0.929705,1.040114,1.184891,1.202332,1.355581,1.322278,1.344950,1.303685,1.163392,1.070117,0.772008,0.576715,0.397054,0.118234,0.050991,-0.161094,-0.234548,-0.242519,-0.371632,-0.330081,-0.451891,-0.377825,-0.368742,-0.456996,-0.282735,-0.390228,-0.315851,-0.260550,-0.241850,-0.168604,-0.246639,-0.148444,-0.131925,-0.200089,-0.153972,-0.268258,-0.185982,-0.173169,-0.318554,-0.236233,-0.379071,-0.362602,-0.380476,-0.490470,-0.415114,-0.579825,0.000000,0.000000,0.000000,0.000000,0.000000,0.000000,0.000000,0.000000,0.000000,0.000000,0.000000,0.000000,1.000000
0.243136,0.538567,0.651541,0.937509,0.918043,1.090240,1.160086,1.221684,1.334559,1.292215,1.326301,1.247268,1.131121,1.013663,0.713839,0.575889,0.356385,0.140993,0.071625,-0.141299,-0.153861,-0.207815,-0.294334,-0.267815,-0.387085,-0.267345,-0.335122,-0.340172,-0.215354,-0.325994,-0.212159,-0.201221,-0.148845,-0.118372,-0.175959,-0.061074,-0.094641,-0.123858,-0.105566,-0.208024,-0.089842,-0.150185,-0.236858,-0.176343,-0.330539,-0.262152,-0.348194,-0.383050,-0.371259,-0.464452,-0.437011,-0.504617,-0.540309,-0.552441,-0.634110,-0.544000,-0.637287,-0.589996,-0.589406,-0.657939,-0.621940,-0.654952,-0.656088,-0.548933,-0.654001,-0.523357,-0.575478,-0.564548,-0.531590,-0.612640,-0.563136,-0.701294,-0.793187,-0.864815,-0.745698,-0.543911,-0.637027,-0.603009,-0.666191,-0.723882,-0.715364,-0.808486,-0.709863,-0.629711,-0.706117,-0.575901,-0.628316,-0.585797,-0.626470,-0.847307,-0.611227,-0.174307,1.809754,5.045906,7.043931,4.833813,-0.740412,-2.943589,-1.891210,-0.624589,-0.262890,-0.511885,-0.419474,-0.508870,-0.593112,-0.489585,-0.577792,-0.489259,-0.478869,-0.490865,-0.404536,-0.509620,-0.358655,-0.344880,-0.366121,-0.271243,-0.352800,-0.178408,-0.168901,-0.180163,-0.023585,-0.030893,0.054432,0.182672,0.249726,0.424316,0.535771,0.730549,0.801489,0.943643,1.104242,1.095683,1.171519,1.300359,1.265737,1.386722,1.204841,1.248916,1.148435,0.908395,0.836067,0.543204,0.407147,0.239452,0.040161,0.016693,-0.206831,-0.117322,-0.235151,-0.260127,-0.224584,-0.373094,-0.255101,-0.286643,-0.254436,-0.210012,-0.253869,-0.143725,-0.185735,-0.118495,-0.066805,-0.114357,-0.028776,-0.095349,-0.143888,-0.052062,-0.180045,-0.104343,-0.205875,-0.178676,-0.188751,-0.267915,-0.283613,0.000000,0.000000,0.000000,0.000000,0.000000,0.000000,0.000000,0.000000,0.000000,0.000000,0.000000,0.000000,0.000000,0.000000,1.000000
0.040407,0.352343,0.448586,0.630037,0.788153,0.880097,1.036528,1.192016,1.146835,1.297359,1.358025,1.376002,1.445358,1.254623,1.340198,1.142772,0.945619,0.834851,0.512020,0.420136,0.178600,0.048973,-0.036049,-0.222347,-0.114697,-0.292402,-0.237545,-0.281239,-0.382561,-0.250594,-0.319798,-0.234153,-0.245401,-0.239444,-0.149570,-0.196138,-0.094838,-0.082511,-0.110684,-0.014540,-0.145357,-0.108015,-0.087763,-0.179696,-0.117574,-0.231102,-0.174668,-0.215150,-0.312172,-0.230963,-0.453859,-0.433991,-0.492357,-0.555657,-0.532491,-0.607923,-0.500881,-0.517104,-0.635988,-0.547630,-0.644471,-0.643763,-0.647156,-0.676367,-0.611232,-0.671651,-0.631650,-0.694875,-0.671095,-0.566937,-0.641064,-0.527437,-0.576338,-0.611184,-0.569799,-0.692358,-0.589337,-0.767196,-0.933193,-0.750458,-0.625520,-0.592538,-0.703269,-0.726011,-0.580521,-0.825316,-0.688748,-0.728333,-0.642158,-0.599023,-0.736148,-0.629387,-0.635739,-0.815270,-0.656008,-0.347658,1.382319,4.516146,7.094346,5.118429,-1.091483,-2.923268,-1.739026,-0.548233,-0.400764,-0.553623,-0.417227,-0.634834,-0.556895,-0.532753,-0.553576,-0.465613,-0.530523,-0.565254,-0.463485,-0.524333,-0.391355,-0.450525,-0.419609,-0.334577,-0.350361,-0.257651,-0.256058,-0.123027,-0.093935,-0.107540,0.149726,0.158827,0.304261,0.447663,0.496635,0.780912,0.838948,0.993333,1.065265,1.178091,1.344844,1.330600,1.398510,1.360437,1.300922,1.305188,1.043437,0.932597,0.805616,0.526078,0.428738,0.145168,0.146768,-0.063989,-0.208298,-0.187176,-0.309025,-0.333558,-0.330049,-0.298370,-0.204214,-0.337648,-0.236494,-0.239029,-0.250005,-0.129292,-0.203106,-0.088159,-0.118063,-0.112804,-0.116777,-0.249648,-0.141224,-0.111935,-0.165764,-0.079370,-0.220458,-0.156392,-0.278252,-0.305266,-0.269386,0.000000,0.000000,0.000000,0.000000,0.000000,0.000000,0.000000,0.000000,0.000000,0.000000,1.000000
-0.021693,0.367897,0.385444,0.538261,0.771938,0.829633,0.991738,1.040951,1.192975,1.319740,1.303839,1.378445,1.305696,1.278850,1.243216,0.965147,0.899691,0.715174,0.473300,0.353227,0.085362,0.105717,-0.149998,-0.238842,-0.241814,-0.358952,-0.373808,-0.371278,-0.327017,-0.248023,-0.387765,-0.258155,-0.295581,-0.272087,-0.176011,-0.237773,-0.124677,-0.159983,-0.151046,-0.160429,-0.295308,-0.169391,-0.160709,-0.197674,-0.125889,-0.256315,-0.202966,-0.311475,-0.361000,-0.278508,-0.385373,-0.349487,-0.518937,-0.569123,-0.487178,-0.653975,-0.562656,-0.548483,-0.647580,-0.606317,-0.745082,-0.663660,-0.742424,-0.688431,-0.599916,-0.726811,-0.655843,-0.713105,-0.684020,-0.523659,-0.639720,-0.642151,-0.694439,-0.630743,-0.765882,-0.990367,-0.816696,-0.654872,-0.534827,-0.509604,-0.668550,-0.573266,-0.742976,-0.759049,-0.669553,-0.714297,-0.655240,-0.679286,-0.704282,-0.614879,-0.688707,-0.724741,-0.512210,0.333272,2.998430,5.925417,6.964989,3.028729,-1.793312,-2.383849,-1.063776,-0.130891,-0.461852,-0.440887,-0.394903,-0.599805,-0.480857,-0.558089,-0.537478,-0.522361,-0.579809,-0.486752,-0.542259,-0.522794,-0.429585,-0.504242,-0.380742,-0.423095,-0.364157,-0.249030,-0.343768,-0.207781,-0.138663,-0.039820,0.060040,0.095490,0.306091,0.387841,0.518512,0.755267,0.760113,0.987624,1.103559,1.140890,1.257063,1.240088,1.390122,1.348815,1.251252,1.325354,1.123149,0.991972,0.815241,0.588575,0.460456,0.167949,0.089476,-0.031260,-0.156427,-0.139816,-0.282350,-0.243226,-0.280632,-0.315497,-0.221774,-0.261667,-0.182866,-0.234390,-0.202463,-0.081607,-0.229927,-0.118505,-0.166996,-0.163281,-0.093536,-0.214384,-0.121224,-0.196414,-0.234400,-0.169148,-0.301026,-0.186136,-0.307528,-0.314483,-0.357935,0.000000,0.000000,0.000000,0.000000,0.000000,0.000000,0.000000,0.000000,0.000000,0.000000,0.000000,0.000000,1.000000
0.000194,0.350785,0.368416,0.529105,0.716203,0.745894,0.936788,1.059025,1.078242,1.200099,1.169043,1.325723,1.262372,1.195689,1.244892,1.065754,0.936928,0.778400,0.562975,0.452080,0.168927,0.121451,-0.015667,-0.103021,-0.109161,-0.225432,-0.193780,-0.227518,-0.258159,-0.164170,-0.215547,-0.122765,-0.201001,-0.127809,-0.059921,-0.172554,-0.075675,-0.124789,-0.112414,-0.054120,-0.176145,-0.059738,-0.179816,-0.154243,-0.152934,-0.224309,-0.155252,-0.244880,-0.280896,-0.255934,-0.339999,-0.281589,-0.404817,-0.423743,-0.415576,-0.480260,-0.473434,-0.537564,-0.521422,-0.539868,-0.596748,-0.555713,-0.619400,-0.622896,-0.572106,-0.652138,-0.550899,-0.634984,-0.546105,-0.498322,-0.562073,-0.496275,-0.553162,-0.551051,-0.611904,-0.780816,-0.737985,-0.646402,-0.410454,-0.459879,-0.570838,-0.562920,-0.673625,-0.697046,-0.731415,-0.788999,-0.680643,-0.748556,-0.699144,-0.675305,-0.750825,-0.638633,-0.804430,-0.865734,-0.647366,-0.048932,1.933483,4.705697,6.929505,5.603863,0.411688,-2.782657,-2.412230,-1.062085,-0.373367,-0.545540,-0.516488,-0.601865,-0.559177,-0.553515,-0.629643,-0.537913,-0.609260,-0.485772,-0.514829,-0.547022,-0.433134,-0.516611,-0.419880,-0.397310,-0.418802,-0.328412,-0.343311,-0.295759,-0.229740,-0.224610,-0.050146,-0.080863,0.042937,0.131183,0.210523,0.451432,0.442823,0.686982,0.796281,0.857644,1.000957,1.003978,1.186917,1.186931,1.208245,1.264683,1.192587,1.187550,1.031892,0.931498,0.777034,0.497868,0.352105,0.139739,-0.008116,-0.072668,-0.257400,-0.241561,-0.293255,-0.318674,-0.273416,-0.374656,-0.295375,-0.310659,-0.325588,-0.219858,-0.319567,-0.160079,-0.204552,-0.171829,-0.120903,-0.190095,-0.112183,-0.149164,-0.197516,-0.134568,-0.220171,-0.143534,-0.257136,-0.248590,-0.234310,0.000000,0.000000,0.000000,0.000000,0.000000,0.000000,0.000000,0.000000,0.000000,0.000000,1.000000
